time,channel1,channel2,channel3,channel4,channel5,channel6,channel7,channel8,position
17.72736167907715,2,0,0,3,3,2,1,-1,1
17.72736620903015,-3,0,2,4,3,0,0,-1,1
17.728071212768555,2,0,0,4,5,6,5,-1,1
17.728073596954346,1,-2,-5,-8,-9,-7,-14,-9,1
17.728846788406372,-2,-1,3,3,2,3,11,1,1
17.728848934173584,-3,-6,-3,-5,-2,-3,-7,2,1
17.733073234558105,6,6,2,0,-4,-4,-11,7,1
17.73307776451111,-3,-4,0,5,8,3,6,1,1
17.739312410354614,-1,-2,-5,-12,-10,-7,-4,-2,1
17.739315032958984,4,6,5,6,7,2,8,4,1
17.747387409210205,-3,-4,-3,-3,2,1,4,-2,1
17.74739170074463,-3,0,2,4,0,-1,-2,-2,1
17.76234006881714,-1,0,0,0,-2,-1,-3,1,1
17.762344360351562,0,-1,-1,-1,-2,6,4,-1,1
17.770836353302002,-5,1,0,-1,0,-2,-7,-3,1
17.770841598510742,-4,-10,-1,5,0,-1,-3,-15,1
17.777482271194458,-3,0,-4,-2,1,0,-11,-3,1
17.77748680114746,-2,-8,-5,-7,-6,-2,10,2,1
17.793121576309204,8,7,5,2,0,-1,-9,-9,1
17.793125867843628,-1,1,-5,-5,-2,0,4,4,1
17.799843549728394,-3,-4,-2,-4,-4,-3,-3,0,1
17.799848556518555,5,4,3,6,6,5,4,1,1
17.815744876861572,-5,-8,-5,-7,-10,-5,1,-2,1
17.815749645233154,-5,-3,-4,-12,-10,-5,-7,4,1
17.82249641418457,1,1,1,0,2,1,1,-1,1
17.82250213623047,6,5,0,3,3,-5,-20,-7,1
17.8307466506958,-5,-5,-3,-1,-1,1,15,6,1
17.830750942230225,9,6,6,2,3,1,-29,0,1
17.844893217086792,2,1,0,1,1,1,5,6,1
17.844897270202637,-4,-2,-2,-4,-2,-1,-1,-5,1
17.853048086166382,0,-1,-3,2,-2,-3,-8,-5,1
17.853053092956543,-6,-1,-2,-2,-1,5,11,1,1
17.85984206199646,-1,2,1,2,0,-3,-7,-2,1
17.8598473072052,-1,-7,-6,-5,-6,-6,-5,-8,1
17.875786304473877,-1,-1,1,2,3,2,8,1,1
17.87579083442688,-2,1,0,6,8,5,14,4,1
17.88259267807007,2,4,1,1,-5,-4,-6,-2,1
17.88259792327881,-8,-7,-5,-6,-7,-2,4,4,1
17.890848875045776,0,-1,-1,-2,1,-3,-11,-3,1
17.890852451324463,6,5,2,3,2,5,20,11,1
17.9049232006073,-3,-5,2,10,11,4,4,-7,1
17.904927968978882,3,2,-3,-10,-10,-6,-13,1,1
17.912959575653076,-4,-1,-3,-5,-3,0,-5,-1,1
17.912963390350342,-1,-1,0,-5,-6,-4,-6,1,1
17.91997528076172,0,-2,-3,0,5,3,6,-7,1
17.91998052597046,3,2,2,2,-2,-1,4,2,1
17.936487436294556,1,-2,1,4,5,1,2,-1,1
17.93649649620056,1,1,-1,2,0,-3,-1,-1,1
17.942611932754517,-5,-6,-7,-15,-14,-5,-8,-3,1
17.942617893218994,-2,0,1,6,7,0,7,3,1
17.95063328742981,0,0,3,3,1,-3,-1,4,1
17.950637578964233,-2,-3,-4,-7,-5,-2,9,-3,1
17.964938640594482,10,7,6,8,4,0,-12,8,1
17.964943170547485,-11,-5,-8,-13,-11,-4,-14,-19,1
17.97252607345581,0,2,2,1,3,4,10,2,1
17.97252869606018,-6,-5,-6,-9,-6,-4,-5,-7,1
17.98012089729309,-2,-2,1,4,3,4,6,1,1
17.980127096176147,2,3,1,3,2,0,3,3,1
17.995927810668945,-4,-5,-5,-8,-5,-3,-5,-2,1
17.995936155319214,-2,-3,-3,-3,-4,-1,-4,-8,1
18.00263738632202,0,3,0,2,3,-1,5,2,1
18.002641677856445,2,-1,0,-3,-1,0,6,0,1
18.010387659072876,1,3,2,7,7,3,3,-3,1
18.010393857955933,-3,-7,-8,-11,-13,-5,-4,-5,1
18.025018215179443,-6,-2,-2,-6,-2,-1,-2,-7,1
18.02502465248108,0,0,4,9,11,7,6,7,1
18.03320813179016,-3,-3,-5,-4,-5,-4,-14,-12,1
18.033213138580322,4,3,5,5,6,-1,11,3,1
18.0400173664093,10,6,4,7,6,-2,2,6,1
18.0400230884552,-2,-5,-7,-11,-12,-3,-8,-4,1
18.055443048477173,-1,-3,-1,-3,-3,1,-2,2,1
18.05544662475586,2,3,4,5,6,4,6,6,1
18.07026481628418,-2,-5,-4,-4,-5,-2,1,-3,1
18.07026958465576,4,6,7,13,13,4,6,4,1
18.070902585983276,-6,-6,-9,-14,-12,-5,-4,-2,1
18.070904970169067,-3,0,0,3,2,2,-4,0,1
18.084380626678467,2,-1,-2,-6,-6,-2,-9,1,1
18.084383726119995,-2,0,0,0,1,1,-1,-2,1
18.093376636505127,1,1,2,6,4,1,5,0,1
18.093383312225342,6,3,-1,2,2,-3,-7,6,1
18.100180864334106,-3,-1,-1,-1,0,0,8,3,1
18.10018801689148,-7,-7,-3,-3,-5,-2,-2,-13,1
18.11521863937378,-1,-3,0,-4,-3,-5,-9,-1,1
18.115221977233887,0,2,2,5,6,8,15,4,1
18.122003078460693,4,0,-1,-2,-6,-8,-20,-6,1
18.12200617790222,-4,-3,-2,1,-2,-3,4,4,1
18.129396200180054,3,2,3,9,10,5,8,2,1
18.129398584365845,-2,-4,-5,-9,-11,-8,-14,-7,1
18.14498496055603,0,3,-1,2,3,1,7,-1,1
18.14499306678772,-5,-7,-4,-11,-12,-3,-11,-3,1
18.15334415435791,3,4,4,5,5,0,4,5,1
18.15334939956665,-5,-4,-2,-5,-4,1,-1,-4,1
18.159972190856934,0,-3,-1,-1,-1,3,8,1,1
18.159977436065674,2,3,2,4,4,1,0,2,1
18.175716400146484,3,0,0,1,1,3,6,6,1
18.175721883773804,1,4,1,2,0,-4,-7,-7,1
18.18253207206726,-1,0,2,8,7,6,7,1,1
18.18253779411316,-2,2,-3,1,0,-2,-1,-5,1
18.189999103546143,-5,-9,-4,-7,-9,-6,-2,-1,1
18.190003871917725,2,3,0,-1,-1,-5,-17,-1,1
18.205044269561768,-7,-4,0,0,1,0,-4,-15,1
18.20505142211914,2,2,0,0,-1,-3,-2,2,1
18.214537382125854,-3,0,0,2,-1,1,5,0,1
18.21454429626465,0,-2,-1,-1,0,1,5,-2,1
18.22055435180664,-1,-2,-2,-6,-5,1,3,3,1
18.220560789108276,4,2,3,4,3,1,4,1,1
18.237229347229004,-1,-1,-2,0,-1,-3,-11,-5,1
18.237236976623535,-1,0,1,6,5,0,3,2,1
18.24264359474182,-1,-4,-5,-10,-5,2,1,1,1
18.24264907836914,-2,-2,0,1,6,4,6,1,1
18.257569313049316,2,3,-2,-4,-3,1,-1,-4,1
18.257575750350952,3,4,4,8,7,3,5,2,1
18.264979600906372,-4,-5,-3,-5,-4,-7,-8,-8,1
18.264984607696533,1,1,-2,-3,-3,-3,-2,-2,1
18.27451181411743,-1,-3,-4,-7,-6,-1,4,-1,1
18.274518251419067,-5,-5,-4,-4,-4,-8,-6,-7,1
18.27998924255371,0,1,0,0,-1,5,2,-1,1
18.279995441436768,-1,-2,-1,-1,0,1,5,4,1
18.303693532943726,9,8,3,6,7,4,1,4,1
18.30370020866394,-6,-3,-2,-1,-3,-2,-3,-6,1
18.305177688598633,-2,-1,-5,-10,-10,-7,-5,1,1
18.30518388748169,-1,-1,2,1,2,3,0,-3,1
18.317574739456177,-2,-1,-3,-4,-2,-3,-2,4,1
18.317579984664917,5,5,5,8,7,7,14,8,1
18.32494306564331,1,-1,-2,4,4,0,0,-1,1
18.32494831085205,-3,-4,-7,-16,-14,-8,-9,-4,1
18.3343505859375,-2,-2,0,-4,-2,-2,-3,-5,1
18.334357023239136,4,-1,1,2,2,3,-2,3,1
18.339929580688477,4,2,2,6,6,2,2,2,1
18.33993411064148,-1,-2,0,1,-1,-2,3,2,1
18.356085538864136,-6,-5,-5,-3,-3,-2,-1,-4,1
18.3560893535614,0,2,2,-2,-3,-2,-10,-2,1
18.362549781799316,-1,-2,-3,-1,-2,-1,0,-3,1
18.362555027008057,2,1,3,6,4,4,2,0,1
18.37940526008606,0,1,1,1,1,3,5,0,1
18.37941002845764,2,4,5,9,9,3,1,5,1
18.384755849838257,-9,-9,-12,-25,-23,-14,-17,-11,1
18.384759664535522,-1,1,1,3,2,2,0,1,1
18.396388292312622,-1,-1,1,6,5,0,-1,-12,1
18.3963942527771,-5,-9,-7,-13,-12,-4,-10,-2,1
18.400047779083252,0,2,4,7,6,6,6,6,1
18.40005373954773,-5,-4,-2,-2,-2,2,6,-3,1
18.425187349319458,-1,3,-2,-2,-5,-6,-16,-6,1
18.42519187927246,-1,1,1,4,4,-1,4,0,1
18.42648959159851,-3,-6,-5,-4,-1,-1,0,-3,1
18.42649555206299,0,-1,-5,-11,-11,-6,-8,0,1
18.43756890296936,-2,-2,0,1,1,2,6,6,1
18.4375741481781,-1,-3,-1,-2,-1,-1,3,-3,1
18.445046186447144,3,4,5,11,7,4,6,7,1
18.44505262374878,1,1,0,5,5,2,1,-3,1
18.45517921447754,-1,-2,-1,-4,-3,-3,-2,-1,1
18.455185651779175,-4,-8,-12,-17,-16,-7,-7,-7,1
18.460200548171997,-5,-3,-1,-1,-2,-1,6,0,1
18.460206747055054,-2,-1,2,3,2,-3,-11,-3,1
18.477452993392944,2,1,1,6,1,1,6,3,1
18.477458715438843,-5,-6,-11,-16,-9,-3,-10,-9,1
18.482397317886353,0,1,3,5,1,-1,1,-4,1
18.482401847839355,0,0,-2,-5,-5,-2,-4,-1,1
18.49942183494568,2,2,0,-3,-3,-1,1,-1,1
18.49942684173584,2,2,3,4,1,1,4,5,1
18.51396346092224,2,0,-3,-2,2,-1,-1,-1,1
18.51396870613098,3,2,3,7,5,1,6,4,1
18.516263961791992,0,-2,-1,-7,-2,0,-11,-4,1
18.516268968582153,4,4,5,12,9,9,12,3,1
18.51994776725769,-8,-7,-11,-15,-14,-9,-15,-5,1
18.51995325088501,2,2,0,0,-2,-3,0,3,1
18.537615060806274,-4,-2,-2,2,4,1,0,-2,1
18.537620782852173,1,0,1,-1,-1,-2,-3,0,1
18.54281210899353,4,5,6,11,9,7,5,-1,1
18.54281735420227,-2,-5,-3,-3,-2,-5,0,-3,1
18.56106734275818,-2,0,-4,-7,-2,1,2,-4,1
18.561074256896973,2,1,0,2,1,-1,2,6,1
18.56479573249817,4,1,6,8,6,2,-8,3,1
18.56480073928833,-2,-4,-3,0,0,0,0,-2,1
18.573631286621094,4,1,2,4,3,0,4,4,1
18.57363533973694,2,4,3,3,4,2,2,6,1
18.580174922943115,-8,-9,-10,-19,-16,-11,-9,-8,1
18.580181121826172,2,1,3,5,7,5,4,3,1
18.59589409828186,-3,-4,-3,-5,-5,-1,-5,1,1
18.595897436141968,-1,-1,1,4,3,2,3,-4,1
18.60305690765381,1,3,2,5,4,4,7,3,1
18.60305953025818,0,1,-2,-3,-3,-2,-4,1,1
18.621422052383423,-9,-6,-1,-3,-4,-5,-4,-12,1
18.621431827545166,-1,-1,-2,0,1,2,1,-2,1
18.6246018409729,5,6,7,13,10,6,8,1,1
18.624605655670166,-13,-11,-14,-23,-21,-16,-18,-11,1
18.63356590270996,2,1,3,5,3,2,-1,4,1
18.633569478988647,-6,-5,-4,-5,-5,-3,-2,-4,1
18.640536308288574,5,4,3,6,8,5,8,11,1
18.640540838241577,6,6,5,9,8,2,-11,0,1
18.656140327453613,2,1,0,2,-1,-4,2,4,1
18.65614366531372,-7,-6,-10,-21,-22,-13,-15,-9,1
18.662323236465454,-1,0,-2,-2,0,-1,3,1,1
18.662328720092773,1,1,3,7,6,5,7,1,1
18.679235219955444,1,4,0,1,2,1,1,-2,1
18.679240226745605,2,0,4,5,7,4,1,0,1
18.68464994430542,1,1,0,0,0,-2,-1,1,1
18.684653520584106,-6,-6,-4,-5,-7,-2,-1,-1,1
18.700451850891113,0,2,0,3,6,4,5,4,1
18.700456619262695,-5,-6,-5,-4,-3,-2,-6,-4,1
18.70134210586548,-6,-5,1,-4,-5,-5,-1,-1,1
18.70134472846985,2,4,0,8,11,10,6,0,1
18.724332094192505,-1,-5,-5,-8,-11,-8,-8,-2,1
18.724339723587036,1,-2,-2,-2,-3,-1,-1,1,1
18.725756883621216,-1,1,1,-1,1,1,2,-1,1
18.725762605667114,4,3,3,-3,-5,1,2,3,1
18.73943328857422,0,-1,0,1,3,1,0,0,1
18.73943781852722,3,2,1,4,3,-3,0,4,1
18.7449152469635,-3,-3,-3,0,2,2,5,-1,1
18.744919776916504,4,6,3,0,1,-1,-5,4,1
18.75999355316162,-1,-3,-5,-8,-5,-3,-4,-4,1
18.75999879837036,-2,2,5,7,5,1,5,4,1
18.769286632537842,1,1,-1,4,1,2,-1,-5,1
18.769293546676636,-6,-8,-9,-19,-18,-12,-12,-8,1
18.78322148323059,-2,-2,2,3,4,1,3,4,1
18.783227920532227,5,3,1,2,2,0,-2,-1,1
18.78428626060486,2,1,-2,2,0,-2,0,4,1
18.78429079055786,-5,-3,-3,-6,-5,-8,-7,-16,1
18.800227403640747,-1,1,-1,0,1,3,-4,0,1
18.800235986709595,-2,-1,-1,1,-1,-2,-1,-5,1
18.805819511413574,0,-1,1,2,2,1,-2,-5,1
18.805827856063843,8,5,4,11,7,2,7,6,1
18.820361852645874,-6,-6,-7,-12,-12,-3,-4,-4,1
18.820428371429443,0,0,-1,-1,0,0,0,1,1
18.827445030212402,0,2,2,1,0,-1,-1,0,1
18.827449798583984,-5,-4,-8,-10,-8,-2,-6,-3,1
18.843202114105225,3,-1,2,3,0,-2,3,1,1
18.843207120895386,1,2,1,3,4,4,1,0,1
18.844168186187744,1,-1,-3,-3,-4,-4,-10,0,1
18.84417200088501,0,1,2,3,4,4,9,3,1
18.858320951461792,3,2,2,7,7,1,1,5,1
18.85832381248474,-3,-3,-2,-5,-10,-4,-2,-1,1
18.865047454833984,-7,-5,-7,-9,-4,-1,-3,-6,1
18.865053176879883,-1,1,2,1,3,0,-2,2,1
18.880374431610107,3,4,5,5,4,2,2,-1,1
18.88038158416748,-4,-1,-2,-4,0,0,1,-4,1
18.888097047805786,0,-1,0,-2,-3,-3,-3,1,1
18.888102054595947,0,1,4,9,9,7,5,4,1
18.903074264526367,-3,-5,-8,-17,-19,-11,-10,-7,1
18.90307903289795,1,2,3,7,6,2,2,7,1
18.904027462005615,5,1,0,-1,-1,1,2,0,1
18.9040310382843,2,-1,1,2,3,4,7,5,1
18.91936731338501,1,4,5,8,8,3,5,2,1
18.919371604919434,0,-1,1,1,-1,-3,-7,-2,1
18.9253408908844,-1,-1,-2,-8,-9,-3,1,3,1
18.925347089767456,-2,-3,-5,-3,1,0,-1,-1,1
18.940144300460815,-3,-3,-4,-2,-2,-1,-4,-6,1
18.94015097618103,1,-1,2,0,-3,-2,-3,-2,1
18.94790554046631,-2,0,1,-4,-4,0,0,-3,1
18.94791054725647,3,5,3,7,5,4,3,3,1
18.96317219734192,-1,-3,-1,2,1,0,-2,-1,1
18.963178157806396,-6,-3,-4,-7,-9,-5,-8,-11,1
18.964761972427368,2,2,2,-2,-2,-1,-3,3,1
18.96476912498474,1,-1,3,2,2,1,4,-2,1
18.979364156723022,-1,-2,-3,-6,-6,-4,-5,1,1
18.979368686676025,3,2,2,3,4,1,4,1,1
18.98532509803772,-3,-4,-4,-2,1,0,-2,-3,1
18.985331773757935,-1,-2,-4,-5,-6,0,-3,-2,1
19.000051021575928,3,2,3,6,7,6,5,-2,1
19.000056266784668,3,-1,-4,-2,1,1,-2,3,1
19.007774353027344,2,3,3,5,5,1,5,3,1
19.007779598236084,-5,-7,-8,-13,-10,-6,-5,-11,1
19.023226976394653,-1,3,3,4,2,0,-2,2,1
19.023231983184814,0,1,-2,0,1,3,2,1,1
19.024230003356934,-2,-1,-1,0,1,-3,-1,-6,1
19.02423334121704,-1,-2,-5,-11,-11,-8,-10,-3,1
19.039936780929565,-3,-1,1,4,0,3,4,-2,1
19.039942026138306,3,3,3,7,10,4,-1,2,1
19.044394493103027,-7,-9,-12,-20,-19,-10,-16,-9,1
19.044397354125977,0,0,2,3,2,1,3,3,1
19.059937477111816,0,-2,-1,-4,-1,-1,-2,-1,1
19.05994200706482,-1,-1,1,-2,-2,-1,0,0,1
19.067397356033325,3,3,4,10,9,6,3,2,1
19.067401885986328,-3,-5,-2,-2,-1,-1,2,1,1
19.08306622505188,2,1,-4,-7,-7,-4,-6,2,1
19.083070755004883,2,2,3,8,11,6,7,-3,1
19.084003925323486,-2,-2,-5,-7,-11,-7,-7,-4,1
19.084007024765015,-3,-2,-5,-7,-9,-3,-4,-1,1
19.099231719970703,4,4,5,9,12,6,10,5,1
19.099236488342285,-4,-8,-11,-19,-16,-9,-7,-6,1
19.105132341384888,2,3,5,10,10,5,6,5,1
19.10513663291931,0,-1,3,3,2,2,2,-2,1
19.12027907371521,0,-2,-2,-6,-5,-3,0,-1,1
19.120283603668213,1,3,0,3,2,-1,2,-5,1
19.127413034439087,-1,-5,-1,1,0,0,-6,0,1
19.12741732597351,0,1,-2,-5,-7,-6,-5,1,1
19.143160581588745,-2,1,1,2,1,0,5,2,1
19.1431667804718,-2,-5,1,-2,-5,-3,-13,-7,1
19.144268035888672,3,2,0,0,2,7,14,6,1
19.144272327423096,-2,-5,-2,1,1,-4,-7,-10,1
19.15961194038391,-3,-3,-4,-8,-7,-4,-7,-1,1
19.15961766242981,-2,-2,0,-3,-4,-2,0,0,1
19.164851427078247,2,1,2,3,1,2,0,-2,1
19.164855241775513,3,5,4,8,8,2,5,2,1
19.179930925369263,0,-5,-6,-4,-4,0,-2,-5,1
19.179936170578003,-2,-2,-3,-3,-6,-2,-2,1,1
19.18791174888611,0,-2,-1,-3,0,0,2,0,1
19.187918663024902,2,2,2,4,4,1,1,1,1
19.203699350357056,1,-1,-2,-4,-1,-2,-4,-4,1
19.20370650291443,1,1,1,1,1,2,6,2,1
19.205254554748535,-1,1,2,3,2,0,0,-1,1
19.20526146888733,0,-1,-3,-5,-6,-2,-8,1,1
19.219772815704346,-3,-3,0,2,1,0,1,-4,1
19.219779014587402,0,0,-2,-2,-1,-3,-3,1,1
19.224915504455566,1,0,3,4,2,0,0,-5,1
19.22491979598999,-1,0,-1,3,4,1,6,3,1
19.240323305130005,-5,-6,-9,-8,-5,0,-4,-9,1
19.240329027175903,-4,-3,-1,-4,-1,-2,6,11,1
19.247857093811035,-1,0,-1,-1,-1,-1,-5,-5,1
19.247864484786987,2,1,2,5,5,3,3,1,1
19.26478099822998,2,-2,0,4,3,3,5,0,1
19.264785051345825,1,1,-2,-3,-3,-2,-1,-6,1
19.26565647125244,-1,-1,-1,0,1,0,-1,0,1
19.26565909385681,-4,-4,-3,-5,-7,-5,-4,-3,1
19.279823780059814,0,1,0,1,1,0,0,1,1
19.279829025268555,1,-3,-1,2,1,1,-2,-1,1
19.285105228424072,-1,-1,0,0,0,1,1,-1,1
19.285110235214233,-2,-1,-2,-2,-3,-3,-4,-6,1
19.299891233444214,3,2,3,4,0,-1,4,4,1
19.299896478652954,1,1,2,4,4,1,-4,-3,1
19.307382345199585,-1,-1,-6,-13,-10,-5,-3,1,1
19.307387351989746,-4,-5,-4,-3,-6,-6,-7,-6,1
19.323368787765503,-2,0,-1,-1,-1,0,4,2,1
19.323373317718506,0,3,4,7,4,0,0,0,1
19.324402809143066,-1,-2,-3,-1,0,0,-1,-3,1
19.324406147003174,4,1,2,3,4,3,3,1,1
19.339420557022095,-1,1,2,3,3,0,-2,1,1
19.339425086975098,-6,-7,-8,-10,-5,0,0,-4,1
19.344855546951294,-1,-1,0,-1,-2,-1,-2,1,1
19.3448588848114,3,2,3,4,5,4,6,5,1
19.360301971435547,-8,-6,-5,-7,-5,-4,-3,-7,1
19.360305786132812,3,4,2,6,6,4,4,3,1
19.367677688598633,-3,-4,-4,-1,1,-2,-4,-3,1
19.36768364906311,-1,-2,-3,-5,-2,0,1,-2,1
19.38304042816162,4,4,5,8,6,5,4,1,1
19.383044958114624,2,-3,-1,-6,-4,-6,-6,0,1
19.383903980255127,2,1,0,2,2,1,6,3,1
19.383906841278076,-8,-8,-9,-15,-10,-1,-7,-9,1
19.399312496185303,1,-1,1,-3,-2,-1,-2,2,1
19.399317264556885,2,4,1,4,2,2,7,3,1
19.404402256011963,-1,0,-1,-3,-5,-4,-9,-7,1
19.40440607070923,2,2,2,3,0,-3,1,1,1
19.419796466827393,2,0,-1,0,-1,1,-5,-2,1
19.419800519943237,-2,-1,-2,-3,-5,1,1,-1,1
19.42750573158264,1,1,4,8,6,3,2,1,1
19.427510976791382,-5,-5,-6,-2,-1,-2,-1,-7,1
19.450671672821045,1,0,-3,-6,-8,-9,-13,1,1
19.450676679611206,0,1,2,4,4,3,1,-2,1
19.451671838760376,3,1,2,0,1,-1,3,3,1
19.451677560806274,0,0,4,8,7,1,-3,0,1
19.459307432174683,-3,-4,-4,-8,-4,1,3,3,1
19.459311723709106,-2,-2,0,-1,2,-2,1,0,1
19.464853048324585,-1,-2,-3,-3,-5,0,-9,-2,1
19.46485662460327,6,3,3,4,2,1,7,10,1
19.479892253875732,1,1,1,5,5,0,-3,-2,1
19.47989821434021,0,1,0,-4,-3,0,1,3,1
19.487424850463867,0,-3,-2,-2,-2,-1,2,-3,1
19.487428903579712,8,8,10,15,13,5,10,7,1
19.5031418800354,-9,-12,-13,-20,-19,-11,-12,-12,1
19.50314688682556,-6,-6,-6,-11,-9,-6,-5,1,1
19.50420069694519,0,1,2,4,4,1,2,3,1
19.504204034805298,-4,-2,0,2,2,1,-2,-6,1
19.519179582595825,7,4,6,10,9,3,9,4,1
19.51918339729309,0,-1,-4,-6,-7,-5,-6,-5,1
19.525303840637207,-2,-2,-4,-7,-5,-4,-2,2,1
19.525310277938843,1,2,0,1,1,2,-1,0,1
19.551367044448853,2,3,2,4,2,3,7,0,1
19.55137300491333,-2,-1,-2,-1,0,-1,-5,0,1
19.55220913887024,0,-1,1,4,2,-2,-2,1,1
19.552215814590454,-4,-5,-7,-13,-6,-2,-5,-3,1
19.56451964378357,-5,-5,-5,-9,-11,-8,-8,-6,1
19.564525365829468,2,-1,0,0,0,2,2,3,1
19.56547784805298,1,0,3,5,3,4,3,0,1
19.565481424331665,0,1,2,5,2,1,0,-1,1
19.579362392425537,-3,-1,-4,-5,-1,0,0,0,1
19.57936716079712,0,-1,2,4,1,2,2,-4,1
19.58497905731201,-3,-3,-1,-2,1,-2,-3,-11,1
19.584984064102173,0,1,2,1,-1,2,1,3,1
19.608245134353638,-2,-1,3,7,2,1,-3,-3,1
19.608250856399536,-5,-4,-2,-2,-3,-2,0,-9,1
19.609333753585815,3,3,-1,-3,-1,-2,1,3,1
19.60933828353882,1,0,-2,-4,-2,-1,3,5,1
19.625346899032593,-3,-3,-2,-6,-6,-3,-7,-2,1
19.625351428985596,4,2,3,7,7,3,6,0,1
19.626676559448242,-4,-4,-5,-6,-6,-4,-7,-2,1
19.62668228149414,-3,-2,-3,-4,-4,-2,-1,-3,1
19.63890051841736,2,3,3,8,8,6,7,4,1
19.63890528678894,3,3,1,-1,1,2,2,-1,1
19.652761936187744,-6,-6,-9,-12,-14,-7,-5,-8,1
19.65276575088501,1,0,0,-3,-2,-2,-5,1,1
19.659587621688843,3,1,4,7,7,3,3,-2,1
19.65959095954895,-2,-4,-8,-15,-9,-5,-8,-4,1
19.667069673538208,2,2,3,6,6,4,7,1,1
19.66707420349121,-4,-1,1,3,0,2,-4,-3,1
19.683241844177246,0,1,0,-2,-2,2,1,-1,1
19.683247327804565,-3,-1,0,4,3,-1,-1,-2,1
19.68431305885315,-4,-5,-8,-10,-10,-5,-4,-3,1
19.684316396713257,-4,-5,-5,-5,-5,-5,-2,-2,1
19.699482679367065,2,5,1,3,4,2,0,4,1
19.69948697090149,4,4,6,11,7,2,2,-1,1
19.705289363861084,-4,-6,-7,-16,-13,-6,-10,-7,1
19.70529556274414,0,1,-3,-4,-2,1,2,2,1
19.71995496749878,3,1,3,6,6,2,0,-1,1
19.71995997428894,-1,-2,-4,-2,-2,-3,1,2,1
19.727436780929565,1,2,3,4,1,1,1,2,1
19.727441549301147,2,0,1,3,4,1,2,-2,1
19.74237895011902,2,1,-1,1,1,-2,1,2,1
19.7423837184906,0,-2,-4,-11,-10,-5,-5,3,1
19.74991512298584,4,4,3,8,7,4,6,5,1
19.749919176101685,3,0,0,-1,-1,-4,-2,3,1
19.765532970428467,0,1,0,1,2,4,1,0,1
19.76553726196289,0,1,0,1,-1,-2,1,0,1
19.766547918319702,0,-1,-1,-5,-3,1,-9,1,1
19.76655125617981,0,1,0,3,1,2,5,2,1
19.77992582321167,-5,-8,-9,-12,-6,-4,-4,-6,1
19.779930353164673,-3,-3,-2,4,1,2,2,-2,1
19.78884196281433,-1,-2,0,-2,-2,0,4,0,1
19.78884983062744,1,4,4,8,7,3,2,-2,1
19.81042742729187,0,0,1,-1,0,-2,1,1,1
19.81043291091919,-4,-4,-6,-9,-8,-3,-7,-2,1
19.811147928237915,0,1,3,10,8,2,4,3,1
19.811150312423706,-1,0,-3,-4,-5,0,0,-1,1
19.8257257938385,-5,-5,-5,-7,-6,-3,-4,-9,1
19.82573127746582,-5,0,-1,2,3,-1,-1,-4,1
19.826489448547363,0,-2,-2,-3,-2,0,2,2,1
19.826494216918945,2,2,3,-1,0,2,6,2,1
19.839793920516968,-1,-3,1,5,0,-1,-6,-1,1
19.83980083465576,-2,-3,0,2,0,-1,0,1,1
19.847156524658203,-2,1,1,7,7,4,-2,-7,1
19.84716033935547,0,0,0,-1,-1,0,1,-3,1
19.862220287322998,-2,-3,-4,-5,-8,-4,-2,0,1
19.862224340438843,2,3,3,2,1,0,-4,-2,1
19.869768857955933,2,2,0,1,1,0,3,3,1
19.869773149490356,-2,-6,-8,-14,-12,-7,-9,-2,1
19.885413885116577,1,2,3,3,0,1,3,0,1
19.88542127609253,0,0,2,4,2,2,2,-1,1
19.886258125305176,-1,2,0,4,4,-2,-1,0,1
19.886263608932495,1,1,-2,-7,-8,-1,-1,4,1
19.9012508392334,-9,-9,-3,-1,-2,-3,0,-6,1
19.9012553691864,2,3,-3,-6,-8,-4,-5,-1,1
19.907565355300903,-1,-2,4,2,5,4,-4,2,1
19.907570838928223,-3,-1,3,8,8,2,5,-4,1
19.922576665878296,0,1,-4,-1,4,4,5,0,1
19.92258095741272,2,0,2,1,0,0,1,1,1
19.929675579071045,-3,-5,-4,-7,-5,-4,1,0,1
19.92967963218689,1,4,-2,-2,-2,-4,-13,-4,1
19.945385932922363,1,0,2,1,1,2,2,2,1
19.94539189338684,1,0,0,3,-2,-2,2,-3,1
19.953219652175903,3,2,-3,-6,-5,-3,-2,5,1
19.953226327896118,-1,-2,0,10,11,3,9,-10,1
19.959959268569946,-6,-3,-9,-22,-25,-16,-18,-5,1
19.959964513778687,1,1,1,3,5,2,2,4,1
19.967455863952637,-5,-3,-2,-4,-8,-6,-4,-5,1
19.96746039390564,2,2,2,5,5,4,3,-1,1
19.982601642608643,7,10,8,15,15,6,9,5,1
19.98263120651245,-11,-13,-15,-26,-25,-12,-14,-12,1
19.989821910858154,1,2,2,2,2,3,4,2,1
19.98982810974121,-2,-5,-1,-3,-3,-2,-2,-2,1
20.005622148513794,3,3,3,4,5,4,4,-3,1
20.005626916885376,-2,-2,1,9,9,3,5,1,1
20.006444454193115,1,0,-2,-5,-6,-5,0,2,1
20.00644874572754,-2,-2,0,-5,-5,-3,-8,1,1
20.019887685775757,1,0,2,2,2,2,5,3,1
20.01989459991455,-1,1,2,5,7,-2,-7,-17,1
20.02710270881653,-7,-7,-6,-5,-5,-2,-4,-6,1
20.027106285095215,0,0,-1,-1,-2,-1,3,2,1
20.042348623275757,2,2,1,3,2,0,3,2,1
20.04235315322876,2,3,4,6,4,2,1,-1,1
20.050042629241943,-3,-3,-3,-9,-7,-2,-2,-5,1
20.050048828125,-5,-6,-8,-13,-15,-10,-12,-4,1
20.06640124320984,-2,-4,-3,-3,0,0,-2,0,1
20.066407918930054,2,0,1,0,0,3,5,6,1
20.067476749420166,0,-2,0,2,4,-1,-2,-3,1
20.06748080253601,0,4,7,14,14,7,8,4,1
20.080007314682007,-7,-13,-16,-28,-28,-14,-11,-9,1
20.0800142288208,1,1,3,2,4,1,0,6,1
20.087647199630737,3,4,2,4,2,1,2,2,1
20.087653160095215,0,0,1,4,3,4,0,-2,1
20.102720737457275,3,2,1,3,3,0,3,2,1
20.10272789001465,-1,-5,-3,-6,-4,-1,0,-3,1
20.11005163192749,1,2,1,2,1,2,1,0,1
20.11005687713623,-3,-5,-5,-7,-3,-2,1,0,1
20.125632524490356,1,0,1,4,0,1,0,1,1
20.125637531280518,4,1,1,3,4,3,6,4,1
20.126757860183716,1,-1,-2,-4,-7,-5,-6,-3,1
20.126763582229614,-5,-2,-2,-3,-5,-3,1,0,1
20.139980792999268,-4,0,1,3,5,2,1,0,1
20.139986515045166,2,3,1,5,2,0,-4,0,1
20.14743685722351,1,0,-1,6,8,2,4,2,1
20.147441148757935,-1,-3,-5,-10,-9,-3,-3,-2,1
20.162521839141846,-3,-2,-1,-1,-4,1,2,2,1
20.162527084350586,0,-1,0,-4,-6,-3,-11,-3,1
20.17819595336914,3,3,6,7,8,4,9,3,1
20.178200483322144,-1,-3,-8,-8,-8,-6,-5,-3,1
20.18557834625244,-2,2,3,1,3,-1,-3,-3,1
20.185582876205444,-4,-3,-2,-4,-4,-3,2,1,1
20.186625242233276,-1,-1,-1,2,2,1,0,-1,1
20.18662977218628,6,4,4,7,6,2,5,7,1
20.200072050094604,1,1,2,4,3,2,2,1,1
20.20007824897766,-1,0,-3,-2,-1,0,1,-3,1
20.207688331604004,-6,-4,-3,-5,-3,1,0,-2,1
20.20769429206848,0,0,-2,-4,-2,-1,-4,-6,1
20.22273540496826,3,2,2,2,1,0,-1,5,1
20.222744703292847,-2,-2,-1,6,6,1,2,-2,1
20.230019569396973,1,1,0,3,-1,0,-2,-2,1
20.230024337768555,-2,-2,-3,-1,-3,1,3,4,1
20.24721884727478,-2,-2,-2,-4,-4,-4,-7,-4,1
20.247222900390625,0,2,4,2,1,2,3,-5,1
20.248191356658936,3,2,-1,0,-1,-2,0,-3,1
20.2481951713562,-6,-7,-2,-5,-7,-7,-10,-9,1
20.259746074676514,3,1,-2,-2,0,2,3,1,1
20.25974988937378,-1,-2,-3,-4,-3,1,4,6,1
20.267255783081055,0,0,-1,-1,0,-1,-2,-2,1
20.26725959777832,2,3,2,3,0,1,-1,-1,1
20.28231692314148,-2,-1,-2,0,1,1,1,0,1
20.282320737838745,-7,-4,-2,-1,-4,0,-6,-9,1
20.29030132293701,-2,-1,0,-2,-1,0,1,-2,1
20.29030966758728,0,-3,-2,-7,-7,-4,-2,0,1
20.305885791778564,0,-1,0,6,5,2,1,1,1
20.305893421173096,-4,-4,-6,-13,-10,-6,-6,-2,1
20.30707335472107,-1,0,1,-2,-2,-1,-1,1,1
20.30707836151123,-1,-2,3,8,8,7,3,0,1
20.320083618164062,-2,0,-1,-1,-3,-4,-4,-11,1
20.32008957862854,5,3,3,3,1,-1,-2,7,1
20.327674865722656,-4,-3,-4,0,-1,0,1,-3,1
20.327680349349976,-3,-2,-7,-8,-8,-3,-2,1,1
20.342609167099,4,2,1,0,1,2,-4,0,1
20.342615842819214,-1,-1,1,5,7,1,9,4,1
20.35010051727295,3,1,1,3,1,1,-4,-2,1
20.350107669830322,-7,-8,-6,-12,-14,-12,-11,-4,1
20.36568832397461,-3,0,-1,-2,-4,-2,-1,0,1
20.365694284439087,2,0,-1,-3,-4,-1,-1,-2,1
20.36687994003296,0,0,0,2,0,-4,-2,1,1
20.3668851852417,-1,1,2,8,9,4,2,-2,1
20.380099296569824,2,1,0,-3,-1,-3,0,1,1
20.38010549545288,0,1,-1,-2,-3,-1,-3,-2,1
20.395963191986084,-2,-3,-2,-8,-5,0,-3,0,1
20.395971298217773,-1,1,0,2,5,1,5,-4,1
20.402626276016235,0,1,-1,-1,0,-1,-3,-1,1
20.402631759643555,2,3,5,12,12,4,2,0,1
20.409520149230957,-5,-8,-11,-17,-15,-7,-11,-8,1
20.40952467918396,5,2,5,6,6,2,2,5,1
20.425823211669922,0,0,-1,2,0,-1,-2,-2,1
20.425828218460083,2,1,0,-1,0,2,5,4,1
20.426818132400513,-5,-2,-1,2,-2,-4,-8,-5,1
20.42682123184204,2,-1,-1,-6,-3,0,-2,1,1
20.441561460494995,-2,-4,-2,-6,-5,-3,0,-4,1
20.441568613052368,-1,-1,-1,0,-1,-3,-4,1,1
20.44755744934082,2,0,0,1,2,-2,3,2,1
20.447563409805298,5,8,5,11,9,5,7,3,1
20.462697505950928,-3,-8,-8,-7,-11,-8,-4,-4,1
20.462703466415405,-2,-3,-7,-12,-8,-3,-8,3,1
20.470144271850586,3,4,4,6,5,3,5,4,1
20.470150232315063,-3,-3,-5,-8,-8,-9,-7,-2,1
20.487064123153687,-1,-3,2,7,8,4,6,0,1
20.487069129943848,9,3,2,1,-1,-2,1,4,1
20.488200902938843,-2,1,-1,0,2,2,3,1,1
20.488205909729004,0,1,1,4,6,4,2,-1,1
20.50007939338684,2,3,4,4,3,3,2,5,1
20.50008463859558,-4,-7,-4,-4,-4,-2,0,-7,1
20.507193565368652,4,1,2,0,2,1,5,3,1
20.50719714164734,2,4,3,5,2,3,3,2,1
20.523051261901855,-9,-7,-9,-13,-9,-4,-9,-9,1
20.52305555343628,-7,-3,-1,-3,-3,-2,0,0,1
20.529821395874023,2,2,3,4,3,2,4,1,1
20.529826402664185,-1,0,1,1,3,1,-1,-1,1
20.545329093933105,6,3,5,9,9,3,5,4,1
20.54533290863037,-2,-2,-5,-7,-6,0,-5,-3,1
20.54601240158081,-5,-5,-4,-4,-5,-2,-5,-6,1
20.54601550102234,1,1,0,3,1,0,1,0,1
20.559616088867188,1,2,1,2,1,0,3,4,1
20.559620141983032,-2,-2,-4,-4,-2,-4,-4,-9,1
20.567132234573364,-4,-4,-8,-12,-12,-6,-8,-6,1
20.56713628768921,0,-2,-3,-2,-3,-2,0,-1,1
20.582125425338745,2,2,1,4,4,1,0,-3,1
20.58212947845459,-5,-5,-3,-4,-8,-3,-5,1,1
20.597983837127686,2,0,-1,-2,-2,2,4,1,1
20.59798765182495,-2,1,-1,-1,1,-1,-5,-3,1
20.60529661178589,1,0,0,-3,-4,-1,0,0,1
20.60530114173889,1,1,2,3,0,0,2,-2,1
20.606128215789795,0,-1,-1,-1,-1,-4,-5,-3,1
20.606132984161377,-7,-6,-4,-7,-7,-1,0,-5,1
20.619784832000732,-1,1,-2,1,1,-3,-5,2,1
20.619788646697998,0,-4,-2,-5,-6,-1,6,1,1
20.627158403396606,2,2,2,6,6,1,1,-1,1
20.62716317176819,-3,-1,-4,-8,-6,-4,-2,-1,1
20.642594575881958,-3,0,0,1,0,0,-5,-4,1
20.642600297927856,0,2,0,5,3,0,-2,0,1
20.65019464492798,-6,-5,-4,-7,-7,-3,-5,-5,1
20.650201082229614,2,0,1,3,3,1,3,-1,1
20.673927068710327,0,-2,-1,1,-1,0,4,0,1
20.67393159866333,2,2,1,7,9,7,4,2,1
20.67664098739624,1,1,3,5,3,0,2,0,1
20.676647663116455,-3,-4,-5,-13,-9,-6,-8,0,1
20.68000864982605,-5,-4,-1,-3,-3,0,6,-4,1
20.68001413345337,-1,0,1,1,0,-3,-2,2,1
20.687695503234863,2,1,1,8,8,2,1,0,1
20.687700986862183,-2,-5,-3,-3,-2,0,0,1,1
20.702574968338013,0,1,0,-1,-1,0,2,1,1
20.70258092880249,4,2,1,0,1,-1,1,0,1
20.71008062362671,4,1,2,1,-2,-1,6,9,1
20.71008849143982,0,1,1,6,6,3,6,4,1
20.72522234916687,0,-3,-5,-10,-10,-6,-9,0,1
20.725228548049927,0,1,2,0,3,3,5,2,1
20.733302116394043,0,0,-1,-3,-3,-1,-4,-5,1
20.733307361602783,1,-2,-1,-1,-3,1,0,1,1
20.748072862625122,7,7,3,2,4,2,0,4,1
20.748077392578125,-7,-6,-8,-13,-10,-7,-9,-6,1
20.748976469039917,-2,-2,-1,1,2,1,1,-2,1
20.748979568481445,2,2,4,4,1,-1,2,0,1
20.76266574859619,-2,2,0,4,6,1,-2,-6,1
20.762670278549194,-2,-2,-2,-4,-5,-4,-2,0,1
20.769906044006348,0,1,1,5,4,2,-2,-5,1
20.769911289215088,-1,-2,-2,-4,-2,-2,-4,-2,1
20.784929752349854,-1,-1,-1,0,-1,-2,0,1,1
20.784936666488647,1,3,3,5,3,4,5,-1,1
20.79309320449829,-2,0,-2,1,-1,0,-1,-2,1
20.793097019195557,6,8,8,17,15,3,4,1,1
20.808331727981567,-14,-16,-16,-27,-28,-14,-18,-12,1
20.80834150314331,1,1,4,4,3,1,-1,-1,1
20.809439659118652,3,1,0,-1,-1,1,3,6,1
20.809444427490234,0,-1,-2,-3,-3,2,0,-2,1
20.822688817977905,2,2,3,5,7,2,4,4,1
20.822694301605225,0,-2,-3,-2,-1,-1,0,-1,1
20.829957008361816,0,-1,-1,-3,-3,-4,-5,1,1
20.82996153831482,-5,-4,-3,-1,-3,-1,-6,-7,1
20.84516978263855,1,-1,-2,-1,-4,1,3,4,1
20.84517502784729,-5,-6,-3,-4,-4,-2,-4,-9,1
20.853219747543335,0,0,0,0,0,-1,1,2,1
20.85322403907776,3,3,2,-1,1,0,-1,0,1
20.868324041366577,2,-1,1,6,6,2,3,-2,1
20.86833095550537,-1,-2,-2,-4,-4,-3,1,4,1
20.869404315948486,-3,-1,-2,0,1,3,2,-2,1
20.86940884590149,-2,-2,0,3,0,-1,1,-3,1
20.88259744644165,0,0,-2,-4,-4,-9,-20,-5,1
20.882604360580444,-5,-1,-1,2,2,0,2,-5,1
20.889516592025757,1,-2,-2,-4,-5,-5,-1,1,1
20.889519691467285,1,3,5,14,14,6,7,1,1
20.905062198638916,-8,-11,-14,-28,-29,-18,-13,-11,1
20.905067205429077,0,0,1,1,1,5,1,7,1
20.913103818893433,-4,-2,-2,-3,-2,0,-3,-2,1
20.913108825683594,1,2,3,3,1,1,1,2,1
20.92814803123474,8,8,4,13,13,9,9,3,1
20.928153038024902,2,-2,0,-1,-3,-4,-1,2,1
20.929058074951172,-2,-3,-1,-2,-1,2,3,-3,1
20.929075956344604,-3,-6,-8,-14,-13,-7,-5,1,1
20.950719118118286,0,5,5,9,8,5,9,4,1
20.95072364807129,-2,-4,-6,-9,-8,-5,-9,-8,1
20.95170307159424,2,0,2,7,7,4,4,1,1
20.951705932617188,-2,-3,-4,-7,-3,0,-2,0,1
20.96507167816162,2,6,7,12,8,3,-1,4,1
20.96507740020752,-3,1,-5,-4,-3,-7,-7,-2,1
20.973116397857666,0,-2,-3,-5,-6,-5,-10,-2,1
20.973121166229248,-3,-3,-3,-5,-3,-1,2,0,1
20.988147020339966,1,3,3,5,7,8,9,0,1
20.988153219223022,9,7,8,16,11,6,6,2,1
20.989721298217773,-7,-9,-11,-18,-14,-5,-7,-5,1
20.989726066589355,-2,-2,-1,-6,-5,-1,-4,-1,1
21.002580642700195,-1,-1,4,6,7,3,3,0,1
21.002585887908936,-2,-1,-1,-1,-2,-2,0,-2,1
21.01005983352661,4,5,3,6,7,3,4,1,1
21.01006579399109,-5,-6,-3,-4,-6,-4,-6,-6,1
21.025158643722534,-3,-8,-3,-8,-5,1,2,0,1
21.025164365768433,-2,0,-1,-2,1,-1,-1,1,1
21.040265560150146,1,2,3,3,2,-1,0,-1,1
21.040269136428833,0,-2,0,4,5,-1,0,-5,1
21.048383951187134,-3,-3,-6,-9,-11,-4,-10,-3,1
21.048389434814453,1,0,1,1,0,0,4,0,1
21.049455404281616,-1,-2,1,0,2,2,0,-3,1
21.049458742141724,12,10,4,4,2,-3,-7,5,1
21.062698125839233,3,1,0,4,4,2,8,-1,1
21.062703371047974,1,-1,-1,0,0,1,-1,1,1
21.070181131362915,-3,0,-2,-3,-7,-6,-2,0,1
21.070186853408813,1,1,2,1,3,1,4,0,1
21.08541512489319,-1,0,-4,-5,-5,-3,-2,-2,1
21.085423231124878,-3,-3,-3,-6,-6,0,-3,0,1
21.093317985534668,4,1,3,9,5,1,4,1,1
21.093323469161987,-5,-6,-10,-13,-15,-9,-7,-5,1
21.108444929122925,2,5,5,8,9,5,6,6,1
21.108450651168823,1,0,0,1,2,0,1,-4,1
21.109525442123413,-4,-6,-6,-7,-7,-3,-4,-5,1
21.109529495239258,-3,-1,0,1,2,1,0,-7,1
21.130916595458984,0,0,-1,-1,0,-1,-2,0,1
21.130922317504883,-4,-5,-6,-6,-5,-1,-2,-5,1
21.13211178779602,-1,-1,-1,-2,-2,0,5,2,1
21.132115602493286,3,2,2,2,2,3,3,4,1
21.145099878311157,-2,-1,0,3,4,1,-1,-2,1
21.14510488510132,-2,-2,-3,-9,-8,-3,-3,-4,1
21.153355360031128,1,1,1,5,3,-1,1,2,1
21.15335988998413,-1,-2,-1,-1,2,3,1,-1,1
21.168238639831543,-3,0,1,3,3,2,3,1,1
21.168243169784546,1,2,2,5,4,2,0,-6,1
21.169215440750122,-1,-6,-5,-10,-8,-3,-14,-8,1
21.16921830177307,1,2,1,2,2,0,3,6,1
21.18266224861145,-1,-3,-2,-4,-5,-2,-3,-1,1
21.18266773223877,2,1,4,6,3,0,0,-1,1
21.19098687171936,0,-4,-4,-6,-6,-2,3,8,1
21.190990924835205,-2,-2,-2,-4,-3,0,-5,-1,1
21.20504403114319,-2,-1,-3,-6,-4,-2,-6,-3,1
21.20504903793335,0,2,1,2,3,0,4,4,1
21.213607788085938,2,3,0,4,4,0,2,-2,1
21.21361470222473,0,0,-1,-2,-5,-5,-1,0,1
21.229333877563477,-2,-3,-2,0,0,0,0,0,1
21.229340314865112,0,1,1,-2,0,1,1,1,1
21.230571031570435,-3,2,-1,-1,-1,0,-3,-3,1
21.23057508468628,-4,-3,-1,-1,0,-1,1,-4,1
21.242852687835693,7,5,5,3,0,-4,-4,1,1
21.242857456207275,-1,-2,2,5,5,3,1,1,1
21.250006675720215,-3,-4,-7,-11,-8,-2,-1,-4,1
21.250011444091797,-4,-4,-2,-1,-1,-1,2,-6,1
21.265060663223267,-5,-4,-2,0,0,-1,-7,-5,1
21.265066385269165,4,3,2,5,4,2,10,12,1
21.274879455566406,2,2,0,2,1,2,-6,-2,1
21.274884939193726,1,-1,-2,-3,-3,-2,2,3,1
21.28814458847046,-7,-6,-6,-9,-11,-6,-2,-2,1
21.2881498336792,1,1,1,4,5,1,-2,0,1
21.289490699768066,-2,0,-2,-2,-1,0,0,0,1
21.289495944976807,3,1,4,6,4,4,3,-2,1
21.30249834060669,-1,-3,0,0,0,0,4,-1,1
21.30250310897827,1,-1,-4,-6,-6,-5,-9,-4,1
21.310235261917114,3,3,4,6,2,-1,4,4,1
21.31024193763733,-6,-3,-5,-3,-2,-1,-3,-7,1
21.325193643569946,1,0,-2,0,-1,-4,-4,3,1
21.325253009796143,-1,0,0,-1,-2,0,-2,2,1
21.33321213722229,0,0,2,5,6,0,-2,-3,1
21.33321738243103,2,0,0,1,-5,-3,1,5,1
21.34814429283142,-1,-1,0,6,11,8,12,-2,1
21.348149061203003,-7,-5,-9,-14,-15,-8,-13,-8,1
21.34910488128662,-5,-2,1,0,-3,-3,-5,1,1
21.34910821914673,1,1,-1,0,0,-2,0,0,1
21.36196994781494,3,5,4,8,8,5,6,5,1
21.36197280883789,1,-2,-2,2,4,1,-1,-3,1
21.36940360069275,-2,-2,-4,-14,-17,-9,-7,-3,1
21.369405508041382,0,3,1,-1,1,3,2,2,1
21.394095420837402,-3,-5,-1,-3,-4,-2,-2,-1,1
21.3941011428833,1,3,1,2,3,1,1,1,1
21.39525866508484,6,4,8,17,13,5,8,0,1
21.395262956619263,-11,-14,-23,-37,-37,-20,-16,-16,1
21.408121347427368,3,5,3,0,-3,-1,-19,2,1
21.408125638961792,-3,-3,0,0,1,3,4,-2,1
21.409197568893433,1,2,3,9,10,4,4,0,1
21.409201622009277,4,4,4,6,7,4,4,5,1
21.422707557678223,1,-3,-3,-4,-6,-2,4,-4,1
21.422713041305542,0,-2,0,-1,2,-1,1,0,1
21.430479764938354,-3,-3,-4,-5,-5,-3,-4,1,1
21.430485486984253,-1,0,3,6,5,2,-1,-2,1
21.444957971572876,-4,-3,-5,-9,-5,-5,0,-3,1
21.44496250152588,-4,-4,1,2,-2,0,-3,-2,1
21.453641891479492,1,1,1,-1,1,3,6,0,1
21.45364809036255,5,5,8,12,9,7,6,3,1
21.468213319778442,-3,-3,-8,-13,-11,-4,-4,-3,1
21.46821904182434,-3,-3,-6,-4,-5,-4,-1,-1,1
21.469277381896973,-2,0,0,-1,1,1,1,-1,1
21.469282388687134,2,2,3,5,3,1,-5,1,1
21.482593536376953,-2,-2,-2,1,0,1,3,-5,1
21.482598781585693,1,-1,-1,-1,-3,-2,-5,-6,1
21.490251064300537,-6,-5,-5,-6,-6,-3,2,-1,1
21.490283727645874,3,3,6,11,12,5,5,5,1
21.50827145576477,-3,-2,-2,-2,-2,-2,-4,-6,1
21.508277893066406,1,-2,-5,-2,-6,0,-2,3,1
21.51328420639038,1,3,-1,0,0,1,1,4,1
21.51328945159912,2,-1,2,3,2,2,2,-2,1
21.528218269348145,-5,-6,-10,-14,-10,-4,-2,-5,1
21.528223276138306,1,8,7,6,6,2,2,0,1
21.52922487258911,-3,-2,-2,1,2,1,-3,-4,1
21.52922773361206,-3,-3,-4,-11,-13,-7,-6,-1,1
21.54270911216736,3,3,5,7,8,3,2,4,1
21.54271936416626,-2,0,0,-1,1,-2,-2,-4,1
21.56255793571472,0,-3,1,1,1,-1,0,-1,1
21.562562465667725,2,3,2,5,5,3,-2,-1,1
21.564849138259888,0,-3,-2,-4,-6,-3,5,3,1
21.564854860305786,-4,-5,-6,-10,-7,-8,-15,-6,1
21.573010206222534,6,6,5,7,5,3,5,6,1
21.573015213012695,-5,-8,-12,-12,-13,-8,-9,-6,1
21.587810754776,-1,1,0,-2,-3,-3,-3,-3,1
21.58781599998474,3,3,2,3,2,1,4,2,1
21.58850336074829,-2,-5,-3,-4,-5,0,0,0,1
21.58850598335266,2,3,4,6,8,3,0,2,1
21.602632522583008,0,0,2,5,4,4,3,1,1
21.60263729095459,0,2,-3,-3,-3,-2,2,0,1
21.610108375549316,-1,-1,-3,-1,1,-1,-3,-6,1
21.610113859176636,-1,1,-4,-9,-9,-6,-9,-5,1
21.625423192977905,0,1,1,6,5,3,-2,2,1
21.62542963027954,4,-1,1,0,0,2,3,4,1
21.63348889350891,-1,-1,-5,-5,-4,-3,-1,-5,1
21.633495330810547,0,0,1,0,-2,-4,-10,-2,1
21.647550106048584,0,0,0,0,-2,-2,0,3,1
21.647555112838745,1,0,2,3,2,2,5,1,1
21.655681848526,1,-1,0,1,-1,1,-2,-2,1
21.655686616897583,-2,-3,-2,-3,1,0,4,1,1
21.670737266540527,2,2,3,6,4,0,2,1,1
21.670742988586426,-3,-3,-3,-5,-2,1,3,-3,1
21.671748876571655,-6,-4,-2,-7,-7,-6,-9,-8,1
21.671752452850342,-3,-5,-1,1,0,4,8,-1,1
21.684974431991577,7,6,8,11,8,2,4,1,1
21.68497896194458,-7,-8,-13,-22,-20,-12,-9,-6,1
21.693715810775757,-2,-1,1,1,1,-2,-3,-2,1
21.69372248649597,-1,-1,-1,-1,0,0,4,-1,1
21.707877159118652,5,3,3,5,5,4,1,0,1
21.707883834838867,-2,-3,-1,0,-2,-2,-5,-2,1
21.715775728225708,0,1,-1,-1,-2,-3,3,0,1
21.715781688690186,-1,-1,1,6,4,0,-3,-1,1
21.730756521224976,-7,-7,-8,-24,-21,-11,-9,-7,1
21.730762004852295,4,3,6,10,9,4,5,0,1
21.731817960739136,-3,-2,-4,-5,-3,1,-1,0,1
21.731821298599243,4,2,4,7,7,5,7,3,1
21.74515390396118,1,-1,-2,-2,-3,-2,-1,3,1
21.745159149169922,-2,-2,1,2,-2,-5,-4,-3,1
21.753547430038452,-2,-4,-2,1,1,4,-11,-2,1
21.75355315208435,2,3,3,3,1,2,6,3,1
21.767467737197876,-2,-3,-3,-1,-1,-1,-2,-4,1
21.767472505569458,2,0,-1,0,1,2,1,-4,1
21.783222675323486,2,2,4,10,6,0,-1,0,1
21.783227682113647,-6,-6,-8,-9,-6,-4,-9,-1,1
21.791353464126587,-1,-2,0,-1,0,1,3,0,1
21.79136037826538,2,1,1,2,1,1,2,4,1
21.792964935302734,1,2,2,3,-1,-3,4,4,1
21.792969703674316,-3,-5,-7,-11,-4,1,0,-3,1
21.80502963066101,-1,-1,-1,-7,-10,-9,-7,-2,1
21.805035829544067,1,-1,1,6,7,3,2,5,1
21.813183307647705,0,2,2,0,0,1,3,4,1
21.81318736076355,3,2,4,5,2,1,4,4,1
21.827703952789307,-1,0,-3,5,10,6,0,-3,1
21.827712059020996,-7,-2,0,0,-2,-2,-8,-6,1
21.83598828315735,-1,-1,-3,-6,-7,-5,-1,2,1
21.835993766784668,-2,-4,-3,-3,-3,-5,-4,-8,1
21.8506076335907,-3,-2,0,3,3,1,6,-2,1
21.850613117218018,4,6,0,-1,-1,1,-12,-4,1
21.851616382598877,0,0,1,2,1,1,7,-1,1
21.85162091255188,0,-3,-3,-4,-5,-1,-3,-5,1
21.865057945251465,-2,-2,-3,-4,-4,-1,3,3,1
21.865063190460205,0,-2,-2,-1,-3,-1,1,6,1
21.873302936553955,1,-1,0,0,2,1,3,0,1
21.873308181762695,1,4,1,2,-1,0,-3,2,1
21.88751244544983,1,-1,-1,-3,-1,0,2,-3,1
21.887516975402832,-3,-2,-3,-4,-5,-3,6,5,1
21.895997524261475,0,0,-1,1,1,1,-4,-3,1
21.896004676818848,2,1,5,7,6,3,8,4,1
21.910914182662964,-2,-2,-4,-2,-1,-5,-14,-6,1
21.910921096801758,-5,-2,-2,-8,-5,-1,2,2,1
21.9126455783844,-2,-1,-3,-5,-2,-2,1,-7,1
21.91265058517456,-3,0,1,1,0,1,2,5,1
21.925034046173096,3,1,5,12,9,5,5,-1,1
21.925039529800415,2,-1,-4,-6,-5,-1,-3,-3,1
21.933286905288696,1,-1,-2,-2,-1,2,4,2,1
21.933292627334595,-8,-9,-7,-11,-10,-5,-10,-9,1
21.948466062545776,3,3,5,5,2,-1,-2,4,1
21.948471546173096,-6,0,-1,1,1,0,3,-5,1
21.955737829208374,9,8,1,2,2,2,-9,-6,1
21.955743074417114,4,3,3,2,2,0,5,6,1
21.970749855041504,-3,-2,-1,2,2,3,2,-1,1
21.970754146575928,1,-3,1,6,5,3,7,0,1
21.971709728240967,-4,-5,-8,-10,-12,-10,-8,-1,1
21.971712827682495,-1,-2,-6,-11,-10,-5,-7,-3,1
21.984984159469604,-2,-1,2,2,1,1,0,-3,1
21.984988927841187,7,7,6,9,9,5,9,9,1
21.99367356300354,-5,-7,-1,0,-1,0,0,1,1
21.993679761886597,-2,-1,-3,-2,0,-1,1,-2,1
22.007569551467896,3,2,0,0,-2,-4,-9,1,1
22.007574558258057,0,1,1,-1,-2,-1,2,-4,1
22.01581358909607,-1,-3,1,2,1,-2,-6,0,1
22.01581859588623,2,1,0,4,2,-1,-2,-3,1
22.030900239944458,-6,-7,-7,-11,-11,-5,2,4,1
22.030907154083252,0,-1,-2,-5,-2,-2,-2,0,1
22.032361030578613,0,0,1,-3,0,1,-8,-6,1
22.03236746788025,4,5,5,13,8,3,6,4,1
22.0450599193573,-4,-6,-6,-6,-6,-2,-1,-2,1
22.045064449310303,0,0,-3,-4,-3,0,-4,-1,1
22.05293917655945,-3,-6,-1,0,0,-2,6,4,1
22.05294394493103,5,5,2,-1,3,2,-2,-3,1
22.067991971969604,0,-1,0,2,-1,-1,1,-4,1
22.067996501922607,-6,-6,-6,-6,-5,-4,-1,-4,1
22.076223373413086,1,1,0,2,5,2,0,-2,1
22.07623052597046,-1,-3,0,0,-1,1,5,5,1
22.09080171585083,3,1,0,-1,-1,-4,-5,2,1
22.090811729431152,2,-1,-1,1,0,2,-2,6,1
22.093088150024414,2,4,3,6,1,1,6,-2,1
22.093096494674683,-2,-1,-2,5,7,4,3,3,1
22.105313539505005,-6,-4,-7,-14,-12,-4,-6,-3,1
22.10531997680664,-2,-1,1,2,3,0,3,1,1
22.113514184951782,0,2,-2,-1,0,0,2,0,1
22.11352038383484,3,2,3,8,5,2,1,-3,1
22.127737045288086,-2,-5,-5,-8,-6,0,2,1,1
22.127743005752563,-2,-2,-1,-1,-1,-3,-5,-7,1
22.13577103614807,-1,-1,0,-2,-1,-3,-4,4,1
22.135775804519653,-2,0,-1,-2,-2,-3,-3,-5,1
22.150888681411743,2,3,4,8,6,4,5,-1,1
22.150894165039062,-2,-5,-7,-5,-4,-2,-1,-4,1
22.151936054229736,-3,-3,-1,-4,-5,-7,-3,2,1
22.151939392089844,2,1,-2,-11,-7,-5,0,3,1
22.16506814956665,-3,-2,-1,1,2,1,-1,-3,1
22.16507339477539,-1,1,4,7,7,1,-5,-6,1
22.173089742660522,-2,0,0,2,2,2,6,2,1
22.17309331893921,-4,-6,-8,-7,-8,-6,-8,-5,1
22.187617540359497,-2,-4,-4,-7,-5,-3,-4,2,1
22.18762183189392,1,4,4,4,6,-1,2,2,1
22.195706605911255,-5,-5,-9,-15,-15,-6,-6,-7,1
22.195712327957153,-3,-2,1,1,1,-1,-8,-9,1
22.21072793006897,3,4,2,5,4,2,5,4,1
22.21073269844055,4,1,4,5,2,5,0,8,1
22.211693286895752,-2,-2,-3,2,2,1,3,-7,1
22.2116961479187,-4,-2,-4,-6,-9,0,1,1,1
22.225013256072998,-5,0,2,1,2,0,-1,-11,1
22.225017309188843,-3,-3,-3,-2,-1,-1,0,-2,1
22.23348832130432,3,2,4,7,8,4,6,2,1
22.233495950698853,-2,-4,-5,-8,-12,-7,-5,-1,1
22.247591972351074,-3,-3,-2,-6,-4,-2,-2,-1,1
22.24759793281555,1,1,2,0,-1,1,-2,-2,1
22.255754709243774,-5,-6,-5,-4,-2,2,-3,-5,1
22.255759716033936,-4,-3,-2,-6,-5,-2,-4,-4,1
22.27095079421997,5,3,5,7,3,3,5,3,1
22.270957946777344,-2,-2,-4,-1,-4,-3,-1,-4,1
22.272135019302368,3,3,3,5,3,3,0,4,1
22.272139310836792,-2,-3,-1,2,1,-1,0,-3,1
22.285052061080933,4,4,2,1,2,1,2,2,1
22.285057067871094,1,4,2,2,3,2,3,4,1
22.2935152053833,-14,-11,-6,-8,-12,-11,-17,-14,1
22.293524503707886,-2,-1,-2,-3,0,2,7,2,1
22.30761957168579,1,-1,-2,0,-1,-4,-19,-7,1
22.30762481689453,-3,-2,-1,-3,-3,-2,-1,-6,1
22.315732717514038,8,8,7,11,8,4,5,6,1
22.3157377243042,-8,-12,-15,-22,-21,-12,-16,-9,1
22.33928942680359,-4,-2,-1,0,1,0,3,3,1
22.339296340942383,-2,-4,-4,-4,-4,-2,-3,-7,1
22.340782403945923,2,0,-1,-5,-1,-1,1,2,1
22.34078860282898,8,8,10,18,18,12,14,4,1
22.345273733139038,-1,-5,-6,-7,-11,-10,-9,-3,1
22.345280170440674,-6,-2,-7,-9,-7,-5,-6,-5,1
22.361214637756348,-1,-1,0,0,2,2,1,1,1
22.361220359802246,7,6,2,6,6,3,8,5,1
22.3673255443573,-5,-3,-1,1,2,1,0,-3,1
22.367329597473145,4,3,2,2,0,-3,-4,3,1
22.375576734542847,0,-2,-2,-3,-7,-2,-2,-1,1
22.37558126449585,-1,1,1,1,3,1,2,2,1
22.39049506187439,3,0,0,1,2,2,7,0,1
22.390499591827393,-4,-4,-1,1,1,-1,-4,-11,1
22.3982355594635,3,2,3,4,4,3,6,4,1
22.398240327835083,1,-2,0,1,0,-3,-4,1,1
22.40486192703247,-1,-3,-1,-6,-8,-2,2,-1,1
22.404865264892578,6,3,4,6,4,0,5,2,1
22.413182735443115,-6,-6,-12,-17,-11,-5,-7,-5,1
22.41318678855896,-2,0,3,3,6,4,0,-3,1
22.428018808364868,2,3,0,3,5,4,5,3,1
22.428024768829346,3,2,0,3,2,2,3,5,1
22.43565559387207,2,2,3,6,4,-2,-2,-2,1
22.435659408569336,-6,-4,-9,-11,-12,-9,-7,-6,1
22.450424671173096,3,-1,3,3,4,5,-1,5,1
22.450428247451782,-5,-4,-4,-6,-7,-6,-5,-1,1
22.450910091400146,-3,-3,-2,-4,-3,-3,0,-3,1
22.450912475585938,-1,1,2,5,5,1,1,-1,1
22.466129064559937,-1,2,-1,0,1,0,3,0,1
22.466134309768677,0,-3,-2,-2,0,-1,-1,1,1
22.473339557647705,-1,-2,0,1,0,0,-3,-6,1
22.473345279693604,4,1,3,2,2,1,5,2,1
22.48789381980896,-2,-2,-2,-1,-2,-4,-4,-5,1
22.48789954185486,4,1,-1,2,6,0,2,3,1
22.496238231658936,11,-1,-1,-2,-2,3,2,3,1
22.496243953704834,-8,-4,-2,-2,-3,1,-1,-4,1
22.510525941848755,2,-3,-1,0,0,-1,-3,6,1
22.5105299949646,-9,-2,2,3,2,1,2,-10,1
22.511175394058228,-3,2,2,4,4,-2,2,5,1
22.51118040084839,1,-3,-4,-6,-4,-2,-9,-3,1
22.52479100227356,1,-1,1,2,3,2,4,-2,1
22.524795532226562,-2,-1,-2,-5,-5,-2,-2,1,1
22.53288984298706,4,3,2,5,3,2,1,1,1
22.532893657684326,3,-1,-1,-1,0,2,-1,-4,1
22.54765748977661,-1,1,-3,-2,-1,0,2,-2,1
22.54766321182251,6,3,2,2,1,1,1,5,1
22.555723428726196,1,3,2,0,1,1,1,-3,1
22.55572819709778,-9,-8,-11,-21,-23,-17,-18,-3,1
22.570169687271118,-4,-2,-1,-3,-2,0,-2,-3,1
22.57017421722412,4,1,0,-1,-1,3,1,1,1
22.57875108718872,-2,-2,1,4,3,-1,0,4,1
22.578758478164673,2,1,3,8,10,3,6,0,1
22.5851788520813,4,2,0,-3,-2,0,4,-5,1
22.585184574127197,-3,-4,-5,-5,-4,-5,-13,-3,1
22.59320068359375,-6,-2,-5,-9,-4,-2,-2,-2,1
22.59320592880249,0,1,3,6,4,3,7,-1,1
22.624257802963257,4,7,4,6,8,5,4,1,1
22.624264001846313,-3,-6,0,9,2,-2,-10,-11,1
22.625771045684814,-6,-5,-9,-15,-12,-8,-3,2,1
22.62577724456787,2,2,3,4,4,0,4,3,1
22.63053274154663,-6,-7,-1,0,-3,4,-7,-2,1
22.630539417266846,8,8,4,4,5,4,6,3,1
22.638588666915894,1,-2,-4,-3,-4,-2,-5,-1,1
22.638593673706055,0,1,2,0,0,2,1,4,1
22.65332531929016,5,4,3,3,4,0,7,9,1
22.65333104133606,-1,-2,-4,-3,-2,-1,1,-1,1
22.654394388198853,0,-1,1,3,0,0,-2,-1,1
22.654398202896118,1,1,-4,-2,-2,-4,1,-1,1
22.667731046676636,-6,-6,-8,-11,-13,-8,-17,-12,1
22.66773819923401,-2,-4,0,-6,-9,-7,-1,6,1
22.675865411758423,0,1,2,6,5,3,4,-1,1
22.67587184906006,3,0,0,-1,-1,-1,-5,0,1
22.68969440460205,2,0,-1,2,2,-1,3,-3,1
22.689697742462158,-4,-2,-2,-6,-3,-1,-3,0,1
22.69783067703247,1,1,2,2,1,0,1,-1,1
22.697834491729736,2,2,3,6,3,1,-1,-4,1
22.713910341262817,-13,-9,-7,-7,-4,-1,-5,-9,1
22.71391534805298,7,10,6,2,1,3,5,9,1
22.71490716934204,-5,-4,-4,-9,-11,-6,-6,-6,1
22.714910745620728,-2,-5,-3,-4,-3,-1,-3,-1,1
22.728178024291992,3,2,0,1,2,0,3,0,1
22.728184700012207,-3,-3,-1,-1,0,0,-1,-4,1
22.7357177734375,0,2,1,3,5,3,4,0,1
22.73572278022766,-1,0,-1,0,-3,-2,-4,-5,1
22.75010895729065,1,-2,0,0,2,-3,-3,0,1
22.75011396408081,-5,-7,-7,-10,-11,-7,-6,-3,1
22.758272171020508,-2,0,-2,-4,-4,-1,-4,-2,1
22.75827717781067,1,1,4,4,1,2,0,-1,1
22.781847715377808,2,2,2,7,5,3,5,2,1
22.781854152679443,-1,-4,-4,-5,-3,-3,-6,-4,1
22.782966136932373,-2,-5,-2,-4,-5,-5,-4,0,1
22.78296947479248,3,6,0,2,3,2,4,2,1
22.787407636642456,1,3,3,2,-2,-1,-2,1,1
22.787411212921143,-1,-1,-1,0,1,2,7,1,1
22.79697012901306,2,2,1,8,8,4,0,-2,1
22.79697561264038,-5,-4,-3,-7,-8,-5,5,3,1
22.81020760536194,2,1,-3,-10,-15,-9,-20,2,1
22.8102126121521,-2,2,0,3,4,3,1,1,1
22.818270444869995,2,0,3,6,8,2,3,1,1
22.818275213241577,-4,-6,-7,-9,-8,-1,-3,-3,1
22.833673000335693,-2,0,1,3,2,1,6,1,1
22.833679676055908,-1,-2,-2,-4,-4,-2,-5,-2,1
22.834715366363525,-3,2,1,3,2,2,2,2,1
22.834720849990845,0,-1,-2,-4,-2,-2,-4,-6,1
22.84705877304077,-3,-6,-3,-1,-1,0,3,-1,1
22.84706163406372,-6,-2,1,4,0,-2,1,-7,1
22.856160402297974,-1,-1,-1,0,-1,-1,2,-1,1
22.856166124343872,-2,-2,-2,-2,1,1,-1,-2,1
22.870065927505493,2,2,0,0,1,0,3,0,1
22.870070219039917,-2,-1,0,1,1,0,2,-1,1
22.87869882583618,1,-1,-1,-1,0,-2,-3,-1,1
22.87870454788208,-7,-8,-5,-11,-9,-4,-3,0,1
22.893310546875,-1,0,3,5,4,1,2,-3,1
22.89331340789795,4,6,1,2,-1,3,1,-1,1
22.89415431022644,-3,-2,-1,-4,-6,1,2,-2,1
22.89415740966797,-1,-3,-1,0,0,1,-1,-3,1
22.90762162208557,-4,-2,-3,-1,0,0,2,-4,1
22.907625436782837,-2,-1,0,-1,-1,-2,0,-1,1
22.915889739990234,2,1,0,1,-1,-2,-7,-4,1
22.915895462036133,0,1,1,4,4,2,0,2,1
22.93026638031006,0,-1,-3,-4,-4,-1,0,-1,1
22.93027114868164,-2,-4,-3,-8,-8,-4,-3,-2,1
22.93821620941162,-1,1,1,3,1,-1,-3,0,1
22.938220500946045,-3,-1,-2,-1,1,0,-2,-3,1
22.95367121696472,3,1,2,1,3,0,0,-2,1
22.95367741584778,1,0,0,1,2,1,-2,2,1
22.955947399139404,-5,-5,-3,-1,-2,-2,-3,-5,1
22.955954551696777,2,2,0,0,0,0,0,1,1
22.96758270263672,-4,-4,-5,-13,-12,-5,-7,-6,1
22.967586517333984,0,0,1,2,3,0,4,5,1
22.97569966316223,1,1,0,0,0,0,2,-4,1
22.975703716278076,2,0,2,5,3,0,0,1,1
22.99007534980774,-1,2,-1,4,2,2,7,3,1
22.990079641342163,-1,-4,-8,-8,-6,-3,-7,-9,1
22.997797966003418,-4,-5,-6,-10,-9,-4,-3,2,1
22.997800827026367,2,-1,1,2,2,0,-1,0,1
23.013374090194702,0,-2,0,2,1,-2,4,0,1
23.013379096984863,1,0,-1,1,-1,2,2,-1,1
23.014512538909912,-1,-4,-2,-5,-2,0,-1,1,1
23.01451587677002,0,2,2,5,3,1,1,-1,1
23.027649641036987,6,4,4,7,6,3,4,3,1
23.02765417098999,-6,-8,-5,-8,-8,-6,-8,-4,1
23.035895824432373,0,1,0,-4,-1,0,1,1,1
23.035900354385376,2,3,3,3,0,0,0,0,1
23.050207376480103,-2,-3,-4,-5,-1,-1,-4,-3,1
23.050212860107422,-1,0,0,3,6,2,1,0,1
23.058343410491943,1,2,0,-2,-1,2,2,-1,1
23.058347463607788,2,2,1,3,3,0,-1,-3,1
23.074232578277588,0,-1,0,-1,-1,0,-3,-3,1
23.07423758506775,-2,-4,-5,-6,-4,-2,-4,-3,1
23.075342416763306,-2,1,-1,-2,-3,-4,-4,-2,1
23.075345754623413,0,-5,-4,-3,0,-1,6,-6,1
23.0876681804657,0,-2,-2,-5,-5,4,-1,4,1
23.087674379348755,0,2,1,3,1,-1,0,2,1
23.09586787223816,1,0,0,-2,-1,-1,-2,0,1
23.09587287902832,-2,0,2,4,3,1,3,-2,1
23.110472440719604,-5,-7,-6,-7,-6,-4,-3,-6,1
23.110491275787354,0,1,0,3,2,1,5,1,1
23.118540048599243,3,2,1,2,1,-1,2,-1,1
23.1185462474823,-4,-3,-5,-6,-7,-6,-14,0,1
23.13328719139099,2,3,5,7,5,1,2,2,1
23.133292198181152,1,0,1,7,5,3,3,-1,1
23.134361743927002,-4,-7,-7,-12,-11,-7,-8,-6,1
23.134364366531372,1,0,0,1,0,-1,-2,3,1
23.147696256637573,-3,-1,0,2,2,0,0,-1,1
23.147700309753418,0,2,1,1,-1,0,3,1,1
23.157030820846558,2,-1,0,9,8,3,5,3,1
23.15703558921814,-3,-3,-6,-11,-8,-1,-4,-3,1
23.17051386833191,-2,-3,2,1,0,-3,0,-3,1
23.170518159866333,-1,-3,-7,-11,-8,-3,0,1,1
23.180016040802002,0,2,3,6,7,0,-9,-6,1
23.180020332336426,5,4,4,7,5,5,6,5,1
23.192567348480225,-3,-4,-9,-8,-9,-4,-5,-6,1
23.19257140159607,1,-1,1,-5,-3,0,3,7,1
23.20202922821045,0,-1,-1,0,0,2,3,2,1
23.202033519744873,0,-3,1,3,5,2,4,-1,1
23.207728147506714,5,5,4,7,5,3,1,2,1
23.207733869552612,-6,-6,-6,-9,-7,-6,-6,-4,1
23.217039585113525,-2,-2,-2,-4,-1,-1,2,4,1
23.21704387664795,3,4,3,6,4,1,3,0,1
23.23091435432434,-6,-6,-7,-10,-12,-4,-9,-6,1
23.230917930603027,-3,-1,1,6,2,-2,-1,0,1
23.239412784576416,-5,-5,-7,-11,-13,-7,-8,-7,1
23.239416360855103,-1,-1,0,1,-1,0,1,-1,1
23.252511262893677,4,5,2,4,3,0,4,3,1
23.25251579284668,2,-1,0,2,1,2,-3,-2,1
23.263120412826538,0,1,0,2,1,1,2,0,1
23.263126611709595,-4,-2,-3,1,1,2,0,-8,1
23.2679762840271,2,0,-3,-4,-6,-5,0,1,1
23.267982244491577,4,5,4,6,8,5,4,3,1
23.277841091156006,-3,-6,-6,-11,-9,-4,-2,0,1
23.277846097946167,-7,-1,-4,-6,-7,-7,-12,-7,1
23.29014539718628,-3,-3,0,0,4,3,1,1,1
23.290149211883545,0,-2,0,-1,-1,-2,-4,-4,1
23.299697399139404,5,4,4,11,10,7,8,5,1
23.299702644348145,3,-2,0,3,-1,-3,0,1,1
23.313048601150513,-6,-6,-9,-15,-13,-8,-11,-7,1
23.313052892684937,-1,2,1,1,-1,0,1,0,1
23.322181463241577,-2,1,1,-1,-2,0,0,-2,1
23.322186946868896,4,8,4,6,5,3,3,4,1
23.32782530784607,-8,-9,-7,-13,-12,-7,-9,-5,1
23.327829599380493,-2,-3,-3,-2,-1,2,1,2,1
23.336869716644287,0,-1,-1,-2,-2,-3,-4,-3,1
23.336873531341553,0,1,1,3,0,1,-1,-2,1
23.350234985351562,3,3,5,8,5,4,4,4,1
23.350239753723145,2,2,0,5,8,3,3,-1,1
23.360305786132812,-5,-5,-6,-14,-17,-12,-9,-2,1
23.360311269760132,-1,-2,0,-2,3,2,3,3,1
23.3726704120636,-1,-1,-2,1,2,2,0,-6,1
23.37267541885376,6,5,6,8,6,3,1,2,1
23.382251501083374,-4,-6,-7,-9,-5,-1,-4,-7,1
23.382256746292114,-2,-4,-4,-10,-9,-5,-3,2,1
23.38753390312195,-1,3,3,6,4,2,2,2,1
23.387537717819214,-1,-2,-1,0,-3,-4,-3,-3,1
23.397197008132935,3,2,4,8,11,6,6,3,1
23.397202014923096,1,-1,0,-1,-1,-1,-2,0,1
23.410411596298218,-2,-1,0,0,6,4,2,0,1
23.410415172576904,4,1,-1,-3,-2,0,3,6,1
23.419620513916016,1,2,3,7,8,4,-3,-4,1
23.419623851776123,-4,-5,-10,-14,-13,-7,-7,-5,1
23.43255853652954,1,1,2,5,2,1,1,2,1
23.432563543319702,-3,-4,-3,-3,-5,-4,-5,-3,1
23.44820809364319,-4,0,0,0,2,1,5,4,1
23.44821262359619,4,3,4,5,4,0,0,2,1
23.449272871017456,2,2,2,1,2,-1,1,-1,1
23.449277639389038,-4,-4,-4,-8,-7,-2,-6,-9,1
23.456955909729004,1,0,2,4,1,3,3,0,1
23.456960678100586,3,1,-1,0,0,-3,-4,-1,1
23.470151662826538,0,0,-2,0,-4,-4,2,2,1
23.470155715942383,0,0,1,2,1,1,3,-3,1
23.479679822921753,-2,-1,-2,3,1,-1,0,0,1
23.479684352874756,-4,-2,-3,-4,-3,-3,-8,-8,1
23.49467396736145,4,0,1,-1,1,3,9,6,1
23.494678020477295,-2,0,0,-1,-2,-6,-13,-6,1
23.502105951309204,1,1,2,5,2,1,2,4,1
23.502110481262207,-1,0,0,2,4,4,6,1,1
23.507797241210938,3,4,4,5,2,-2,2,-3,1
23.50780200958252,-2,-3,-2,0,-1,1,0,-3,1
23.516918659210205,1,-3,-3,-8,-7,-5,-4,1,1
23.51692223548889,0,-1,2,3,1,1,7,2,1
23.53034996986389,-2,-3,-3,1,5,1,-14,-6,1
23.530354976654053,-2,0,-1,-2,-2,2,6,2,1
23.540120124816895,-1,-1,-1,-1,-3,-2,-2,-5,1
23.540125131607056,0,1,1,0,-1,0,5,1,1
23.55276322364807,0,1,0,2,5,0,2,2,1
23.552768230438232,-3,-3,-6,-7,-4,-2,-3,-2,1
23.56288194656372,-1,-2,-1,1,-4,-1,-4,-2,1
23.5628879070282,2,4,3,6,5,6,4,2,1
23.576645135879517,-4,-6,-5,-9,-11,-4,-2,-6,1
23.57664942741394,3,3,0,-2,-2,-4,-4,6,1
23.579340934753418,-4,-3,-5,-10,-9,-9,-1,-8,1
23.579346895217896,0,0,1,1,0,1,-1,-1,1
23.59066367149353,-3,0,-1,-1,-1,-1,-1,0,1
23.590670824050903,-1,0,0,1,-3,0,1,-1,1
23.599640369415283,4,1,1,4,3,2,2,2,1
23.599644899368286,-1,-3,-3,-4,-3,-3,-9,-9,1
23.61260437965393,0,-2,-1,0,-2,-2,-1,0,1
23.61260962486267,1,0,2,0,1,3,3,1,1
23.622316122055054,5,5,2,8,4,3,2,-2,1
23.6223201751709,-10,-12,-13,-23,-21,-13,-13,-6,1
23.636401176452637,3,7,4,7,5,5,5,4,1
23.636404991149902,1,-1,1,1,3,0,2,-1,1
23.6383957862854,0,1,2,1,3,2,3,1,1
23.63839888572693,2,-2,-1,1,3,3,2,-1,1
23.65006375312805,3,2,2,4,4,1,2,0,1
23.650068998336792,-5,-6,-5,-8,-6,-2,-5,-4,1
23.660269021987915,-5,-4,-2,-4,-3,0,-3,0,1
23.660274982452393,8,7,4,9,8,3,2,3,1
23.672587394714355,0,-2,0,0,2,1,3,-1,1
23.6725914478302,-3,-3,-3,-2,-2,-3,-4,-3,1
23.683125734329224,-2,-1,1,-1,1,2,1,3,1
23.683130264282227,-3,-4,-2,-2,-4,-4,-1,0,1
23.696095943450928,0,1,1,5,7,2,-2,-6,1
23.696099519729614,-1,0,-1,-2,-4,-3,-1,-4,1
23.69760799407959,4,3,0,2,0,0,2,0,1
23.697611331939697,-2,-1,-2,-5,-2,3,-2,-1,1
23.709559679031372,0,-1,-2,-2,-5,-3,-3,-1,1
23.70956254005432,-3,-3,-3,0,-1,-2,-3,-4,1
23.72705864906311,1,2,1,3,1,0,2,4,1
23.727063179016113,-5,-2,-3,-1,1,2,2,-5,1
23.73317790031433,2,2,-1,-4,-6,-5,-12,-1,1
23.733184814453125,1,-1,0,4,5,2,2,2,1
23.7425537109375,1,-5,-3,-2,0,-2,-3,-5,1
23.742558002471924,6,5,2,3,4,5,4,5,1
23.755477905273438,-5,-5,-3,-6,-6,-2,-2,1,1
23.755481958389282,2,3,1,3,4,3,3,-3,1
23.764918088912964,-1,-2,1,2,5,2,-1,-2,1
23.76492428779602,-7,-8,-10,-9,-10,-10,-9,-2,1
23.770130395889282,-4,-5,-4,-6,-7,-6,-4,-1,1
23.770134210586548,-2,2,2,3,3,2,3,-4,1
23.78712558746338,-1,-2,-2,-4,1,0,-1,1,1
23.787129878997803,3,0,4,7,4,3,5,1,1
23.792481184005737,1,0,0,-1,0,-1,1,0,1
23.792483806610107,-3,-5,-5,-5,-6,-6,-5,-2,1
23.80181384086609,0,1,0,-2,-3,-1,-1,1,1
23.801817417144775,0,-1,2,5,4,2,3,1,1
23.81683373451233,2,3,2,3,5,2,4,0,1
23.81683897972107,2,1,2,8,6,2,6,0,1
23.8189218044281,-9,-10,-11,-21,-21,-14,-12,-1,1
23.81892490386963,-5,-2,1,2,1,0,-4,-6,1
23.830334663391113,2,0,1,2,2,3,6,-2,1
23.830339431762695,4,6,3,6,10,5,3,3,1
23.839358806610107,-2,-2,-5,-3,-6,-4,-3,-10,1
23.839362621307373,0,1,-2,-4,-4,-4,1,11,1
23.85288143157959,-2,-3,-4,-2,-3,1,1,1,1
23.85288667678833,-1,3,2,4,4,1,0,1,1
23.86183214187622,4,2,3,9,9,7,5,-1,1
23.861836910247803,-6,-10,-11,-17,-15,-11,-7,-2,1
23.876498222351074,0,1,2,1,1,0,0,-3,1
23.876503705978394,0,-3,-1,-4,-4,-2,-2,1,1
23.878732681274414,0,3,4,6,8,5,3,2,1
23.878737688064575,7,6,7,13,11,6,11,3,1
23.89051580429077,-8,-7,-13,-22,-21,-10,-18,-9,1
23.890520811080933,-4,-4,-3,-7,-7,-2,-2,-3,1
23.900785446166992,-1,1,0,1,1,1,-1,1,1
23.900789976119995,1,3,3,5,4,1,4,0,1
23.912623167037964,2,3,0,2,5,-2,4,3,1
23.912627458572388,-4,-4,-6,-8,-7,-4,-7,-2,1
23.922170877456665,-3,-4,-6,-8,-10,-5,-7,-1,1
23.922175645828247,0,1,1,3,3,4,0,3,1
23.936964511871338,0,-2,4,5,5,4,3,0,1
23.93696880340576,4,4,1,4,2,0,1,2,1
23.939997673034668,-5,-7,-6,-6,-8,-5,-5,-5,1
23.94000005722046,-2,0,0,-1,-3,-1,1,-3,1
23.9506573677063,-2,-4,-1,-5,-1,2,0,-3,1
23.950662851333618,3,1,2,-1,-2,0,2,2,1
23.959969997406006,0,2,3,4,3,3,3,-2,1
23.959975481033325,0,-1,-1,-2,-4,-6,-7,-4,1
23.972517490386963,-1,-1,1,3,3,1,2,2,1
23.972521543502808,-5,-4,-3,-9,-7,-5,-7,1,1
23.98310422897339,0,1,-2,-1,-1,0,-1,2,1
23.983110189437866,0,-1,0,-1,2,3,3,-4,1
24.012031316757202,5,7,8,17,15,7,6,6,1
24.012035131454468,-7,-10,-10,-22,-21,-9,-11,-7,1
24.013924837112427,2,5,-1,-2,-2,-3,-2,4,1
24.013927936553955,-1,-3,0,3,1,1,0,-3,1
24.014783143997192,0,0,0,1,0,-2,1,-2,1
24.014785289764404,2,3,5,8,8,4,4,0,1
24.020697832107544,3,-2,-3,3,2,0,3,8,1
24.02070116996765,-5,-3,-7,-5,-6,-4,-19,-16,1
24.032662868499756,-2,-3,-1,-3,-1,0,2,2,1
24.032667636871338,0,1,2,2,0,0,1,-1,1
24.042270183563232,5,3,3,2,6,5,7,0,1
24.04227328300476,-2,-3,-2,2,1,-1,-2,3,1
24.05720591545105,-6,-6,-8,-11,-15,-5,-5,-3,1
24.057212352752686,-2,-2,-1,-4,0,-3,-7,-7,1
24.059720516204834,-2,1,3,2,2,2,0,-3,1
24.0597243309021,4,4,2,4,4,3,5,5,1
24.070202350616455,-1,-1,-1,-1,1,2,-3,-2,1
24.070207357406616,0,-1,-1,-1,-4,-3,2,1,1
24.0794939994812,1,0,1,4,4,0,-4,-1,1
24.079497814178467,-3,-2,-4,-9,-8,-5,-4,-4,1
24.10147261619568,-2,-1,-2,-1,-3,-1,-1,-1,1
24.101476669311523,1,1,-1,2,3,3,1,0,1
24.103866815567017,2,0,1,3,1,1,4,-2,1
24.103872776031494,3,3,6,8,6,1,5,3,1
24.1164333820343,-7,-9,-14,-20,-17,-9,-12,-10,1
24.116437673568726,0,-1,-3,-3,-5,-2,-2,3,1
24.118476152420044,-5,-2,-1,-2,-1,-1,2,-4,1
24.118479251861572,2,2,1,4,1,3,4,4,1
24.130178689956665,2,3,3,8,7,3,4,-1,1
24.130184412002563,-6,-4,0,3,3,1,-1,-6,1
24.13985276222229,2,2,1,-1,-1,0,2,1,1
24.139859199523926,-2,-3,-4,-2,-1,-1,-2,-3,1
24.15282940864563,2,0,-1,-2,-3,-2,-1,2,1
24.152836084365845,-3,-2,1,-2,-1,1,0,-4,1
24.170271635055542,0,0,-1,-4,-3,-2,-2,3,1
24.170276641845703,2,4,1,-2,0,-2,1,-3,1
24.1766140460968,3,4,6,7,5,2,4,5,1
24.176618814468384,-2,-5,-5,-5,-2,1,-1,-2,1
24.179160118103027,-5,-3,-3,-6,-6,-5,-2,0,1
24.17916703224182,0,-1,0,-4,-1,2,-1,-1,1
24.190558195114136,0,-2,0,0,-1,-1,0,-4,1
24.190563201904297,4,4,3,8,8,6,6,3,1
24.199703693389893,-4,-2,0,2,0,0,-4,-10,1
24.199708700180054,-2,0,0,-3,-3,1,2,0,1
24.21271848678589,4,0,-1,-1,0,0,0,5,1
24.21272349357605,-1,3,2,4,2,1,2,2,1
24.221984148025513,-1,-3,-5,-2,-1,-1,-2,-5,1
24.22198796272278,-4,-3,-2,-2,-2,-2,-2,-3,1
24.23665475845337,-1,-1,-3,3,4,2,2,-4,1
24.23665976524353,0,-1,-5,-8,-7,-5,-8,0,1
24.239006996154785,3,2,1,2,1,0,2,5,1
24.239011526107788,1,-2,0,3,3,1,1,2,1
24.250300645828247,0,2,3,5,4,0,4,-1,1
24.250305891036987,-2,-5,-5,-4,-6,-7,-8,-2,1
24.259791374206543,-3,-1,-1,-2,-1,-1,-2,-9,1
24.259795665740967,1,-1,1,0,2,1,1,4,1
24.28228759765625,-3,-2,-2,-4,-5,-2,-2,-2,1
24.282293558120728,-1,0,1,4,5,2,1,2,1
24.285528421401978,-2,-2,-2,-3,-4,0,-1,1,1
24.2855327129364,-3,-1,-4,-5,-5,-5,-6,-2,1
24.297213554382324,1,0,2,2,2,0,-1,4,1
24.29721975326538,-2,2,3,1,2,1,3,-3,1
24.301236629486084,1,-2,-2,-2,-1,1,0,-3,1
24.301241397857666,-5,-3,-3,-5,-4,-2,0,-4,1
24.3097665309906,0,0,-1,-1,3,1,4,3,1
24.309770107269287,0,-1,1,1,-1,-3,-6,-2,1
24.319514989852905,-3,-1,-1,-4,-3,-1,-4,1,1
24.31951904296875,0,2,1,3,3,1,2,1,1
24.33277463912964,-8,-9,-7,-7,-6,-3,-6,-8,1
24.33277940750122,-2,-2,-3,-7,-3,-2,2,2,1
24.34267783164978,1,2,2,1,2,1,2,2,1
24.342681646347046,0,1,0,1,3,1,3,1,1
24.35649585723877,1,1,0,2,-3,-3,-8,-3,1
24.35650134086609,0,-3,0,2,0,-2,0,0,1
24.35888385772705,0,0,-1,-4,-3,0,-4,2,1
24.358887910842896,0,-3,-2,-2,-3,0,-1,-2,1
24.378991842269897,0,1,2,0,0,0,0,-1,1
24.37899684906006,2,0,-1,3,5,3,7,3,1
24.381244659423828,0,2,5,4,3,3,3,-3,1
24.381250619888306,-7,-8,-9,-14,-14,-10,-11,-3,1
24.39262294769287,-1,1,2,3,5,4,1,2,1
24.392627000808716,0,-1,0,-2,-4,0,0,-1,1
24.40196394920349,1,-1,0,5,5,0,0,0,1
24.401968479156494,3,1,0,1,2,4,-1,-2,1
24.41641640663147,0,1,-1,-5,-8,-6,-2,1,1
24.416420221328735,2,0,0,-1,2,0,0,1,1
24.41962480545044,0,-1,1,2,2,1,0,-1,1
24.419628143310547,-1,0,0,2,0,-2,-2,-1,1
24.430339097976685,0,-1,0,0,-1,0,-1,1,1
24.43034338951111,2,2,2,1,1,4,7,-1,1
24.439523220062256,-1,-3,1,-1,0,0,0,0,1
24.43952775001526,-4,-2,-4,-4,-5,-4,-3,0,1
24.452659368515015,-1,0,-4,-5,-2,-1,3,3,1
24.452663898468018,-6,-2,-1,-4,-5,-4,-8,-6,1
24.461854934692383,-5,-5,-5,-2,-2,-2,-1,-6,1
24.46185851097107,-1,1,2,3,3,5,2,-1,1
24.47580647468567,0,0,0,2,2,-1,1,-1,1
24.475810527801514,-1,-1,-1,-1,1,-1,-1,-2,1
24.482584714889526,-2,-1,-3,-6,-8,-6,-5,-2,1
24.48258876800537,2,-1,1,0,2,1,1,1,1
24.490128993988037,-2,-3,-3,-3,-4,-5,-3,-4,1
24.49013328552246,2,3,2,5,2,2,0,0,1
24.49892258644104,2,1,2,6,5,2,2,-1,1
24.49892568588257,0,-3,-5,-6,-5,-3,2,0,1
24.512568473815918,0,0,-1,-4,-4,-3,-5,-2,1
24.512572526931763,-3,-6,-5,-2,1,-1,-1,-2,1
24.522661209106445,1,2,0,0,0,2,-2,2,1
24.522666454315186,4,1,3,7,7,5,4,0,1
24.536860704421997,-4,-5,-5,-6,-5,-6,-6,-3,1
24.536866903305054,0,2,1,-2,-3,-2,-7,-1,1
24.542843103408813,0,-2,-2,-2,-1,-2,1,-2,1
24.542848587036133,-3,2,1,0,0,2,-2,-2,1
24.55900239944458,2,1,2,2,3,5,4,-2,1
24.559008836746216,-1,-4,-2,-3,-3,-3,-3,-4,1
24.567270517349243,5,2,-1,-3,-2,-1,-1,5,1
24.567276000976562,-2,-1,0,2,3,0,-6,-3,1
24.581663131713867,3,3,4,4,3,4,3,-1,1
24.58166766166687,-3,-4,-7,-7,-4,-2,-3,-1,1
24.583404541015625,-1,0,-1,-1,-2,-1,-1,0,1
24.583406448364258,3,1,3,4,3,1,4,-1,1
24.596760988235474,-4,-3,-2,0,-2,-1,-1,0,1
24.596768140792847,0,1,0,2,3,-2,-3,-4,1
24.60274076461792,-2,-5,-2,-4,-6,-4,-4,-3,1
24.602744579315186,0,1,-1,-3,-1,-2,2,-1,1
24.6194064617157,-3,0,-3,-2,0,-2,-3,-5,1
24.61941146850586,3,2,1,2,0,5,7,2,1
24.621615171432495,-4,-4,-4,0,0,0,-4,-2,1
24.62161898612976,0,-2,-4,-8,-9,-6,-3,0,1
24.63261580467224,-4,-3,-2,-1,-1,-1,-4,-6,1
24.632620573043823,6,3,3,3,3,0,1,6,1
24.642561197280884,-2,-2,-4,-14,-14,-8,-6,-3,1
24.642565965652466,0,-4,-1,2,-1,-2,-4,0,1
24.655781984329224,1,-1,0,-2,2,2,2,2,1
24.655786991119385,-2,-1,0,2,-2,-4,0,-2,1
24.663793802261353,-3,-1,3,6,8,4,4,-5,1
24.66379714012146,-2,-2,0,-3,-3,-2,-1,-2,1
24.679113626480103,-1,-2,-2,-5,-5,-5,-2,-3,1
24.679118156433105,1,0,1,0,1,3,2,2,1
24.68199872970581,3,1,1,4,4,3,1,-1,1
24.682003259658813,-1,-2,1,2,2,0,0,-1,1
24.69263219833374,-1,-2,-6,-7,-7,-3,-5,-3,1
24.692636251449585,1,3,-1,0,0,-2,1,-1,1
24.70261311531067,0,1,-1,1,3,6,3,3,1
24.702621936798096,4,7,4,10,6,1,2,0,1
24.716054439544678,-2,-7,-8,-14,-13,-9,-8,-2,1
24.71605920791626,2,1,2,-1,0,-1,1,4,1
24.72260332107544,1,1,-1,3,4,1,2,1,1
24.722607135772705,0,-2,1,-1,0,2,3,2,1
24.739375352859497,3,3,5,8,6,6,4,3,1
24.739378929138184,-1,-2,-4,-6,-7,-4,-4,2,1
24.741876363754272,3,3,4,7,5,0,3,0,1
24.741880655288696,-3,-2,-5,-7,-4,0,-2,1,1
24.75262951850891,-2,-1,2,3,0,-1,0,-3,1
24.752633810043335,-6,-6,-6,-7,-7,-5,-5,-2,1
24.761828660964966,-5,-2,0,3,2,2,5,0,1
24.761831998825073,-1,-1,-2,-1,-1,-4,-6,-8,1
24.777069330215454,-2,0,-3,-7,-5,1,1,-3,1
24.777077198028564,-1,-2,0,3,3,3,1,-4,1
24.78294825553894,-2,0,-2,-2,-4,-2,-6,0,1
24.782955408096313,-4,-6,-5,-6,-6,-3,-8,-2,1
24.799686908721924,3,3,5,8,8,4,5,3,1
24.799694299697876,4,4,1,2,-2,1,-3,-2,1
24.80206799507141,-2,-4,-8,-12,-11,-6,-8,-1,1
24.802072525024414,1,0,1,3,4,4,5,1,1
24.81278705596924,6,4,4,7,4,3,0,4,1
24.81279230117798,-1,-5,-4,-2,-1,-4,1,2,1
24.822259664535522,2,1,2,-1,-1,1,2,4,1
24.822265625,-1,0,-1,-2,1,0,0,0,1
24.83677911758423,-4,-4,-4,-6,-5,-3,-6,-3,1
24.83678364753723,0,2,4,6,6,2,5,0,1
24.842936515808105,0,0,1,5,3,-1,4,1,1
24.842941999435425,-2,-3,-3,-7,-9,-9,-12,-13,1
24.858932733535767,2,3,1,-1,1,2,2,1,1
24.85893702507019,-2,1,0,-1,1,0,1,2,1
24.860832452774048,0,-3,1,1,2,-1,-4,-2,1
24.860835790634155,-4,-4,-6,-9,-12,-4,-1,3,1
24.87254762649536,-2,-2,0,0,1,0,-2,-3,1
24.872551679611206,0,0,0,-1,-1,-2,-4,-3,1
24.882131099700928,-3,-1,-2,4,-1,-1,-1,-2,1
24.882140398025513,2,4,0,-1,-2,0,1,3,1
24.89584231376648,-1,-1,-1,0,2,0,3,1,1
24.895846366882324,-2,-1,-3,-6,-6,-3,-8,4,1
24.902846097946167,1,4,3,2,0,2,-1,0,1
24.90285062789917,-3,-1,1,4,4,4,2,-2,1
24.91891312599182,2,2,0,1,0,0,1,3,1
24.918916702270508,0,-1,0,1,3,2,1,-6,1
24.920862674713135,-1,-4,-5,-8,-7,-5,-6,-5,1
24.920865774154663,0,0,-3,-2,-3,-1,0,3,1
24.932162284851074,2,1,1,3,2,0,-1,-5,1
24.93216609954834,2,2,3,3,1,-2,3,1,1
24.9421808719635,0,-5,-3,-7,-8,-4,-7,-2,1
24.942185163497925,2,1,5,2,3,2,5,1,1
24.955793619155884,-2,-4,-3,-4,-2,0,-5,-1,1
24.95579719543457,4,0,1,0,0,1,-1,-6,1
24.962531805038452,6,6,2,4,1,-2,4,9,1
24.96253538131714,-7,-7,-7,-11,-4,1,-8,-7,1
24.979102611541748,0,1,0,-1,-4,-1,1,1,1
24.97910761833191,1,-1,-1,-2,-1,1,2,1,1
24.98157024383545,-1,0,-1,-3,-1,-2,-3,-2,1
24.981576681137085,3,2,4,10,6,3,8,0,1
24.992744207382202,0,1,0,2,0,1,-2,0,1
24.99274969100952,-3,-1,-2,-2,-4,-3,-2,-3,1
25.00210690498352,-5,-6,-9,-14,-12,-8,-7,-6,1
25.002110958099365,1,-2,1,4,1,0,2,-1,1
25.016364336013794,0,1,1,0,1,1,3,1,1
25.016370058059692,0,-1,2,4,2,3,3,1,1
25.022578477859497,0,-1,-1,3,4,1,1,-1,1
25.022582292556763,-2,1,-1,-1,0,-3,-4,0,1
25.03898286819458,-1,-2,-2,0,-3,-2,-1,1,1
25.03898787498474,-4,-1,-1,0,-1,-1,-2,-2,1
25.041093826293945,0,-1,1,1,1,2,3,-1,1
25.04109787940979,-3,-2,-3,-1,0,-2,-2,1,1
25.053083896636963,-2,-3,-2,-3,-3,-3,-2,-2,1
25.05308771133423,0,1,-1,0,1,3,3,5,1
25.06360697746277,-4,-1,-1,-1,-1,-3,-6,-8,1
25.06361150741577,3,0,-1,1,-2,-1,0,0,1
25.07587957382202,-1,1,0,-1,0,-4,-4,-1,1
25.075884103775024,-4,-7,-4,-2,-1,-2,-2,-7,1
25.082762002944946,-1,1,-2,-3,-2,5,3,0,1
25.082767009735107,5,5,4,6,4,3,0,0,1
25.09909725189209,0,-1,0,1,2,1,2,1,1
25.099101781845093,2,-1,0,0,-1,-2,-4,-2,1
25.10135293006897,-2,-1,-2,0,3,5,2,-3,1
25.10135841369629,0,-3,-4,-8,-9,-4,-2,0,1
25.11301040649414,-1,-4,0,0,3,6,0,4,1
25.113014221191406,2,0,0,-1,-1,-6,-3,-1,1
25.12336564064026,1,2,4,8,7,2,7,0,1
25.123415231704712,-4,-2,-5,-7,-7,-5,-5,-3,1
25.136017560958862,-1,-1,-4,-4,-4,-3,-2,-4,1
25.136024475097656,-4,-2,1,1,2,2,4,1,1
25.142406225204468,2,0,-2,-3,-3,-3,-2,0,1
25.142410039901733,3,4,2,2,3,2,2,2,1
25.158631324768066,2,1,1,4,2,0,3,-4,1
25.158634901046753,-1,-2,-2,-4,-5,-4,-5,-3,1
25.16012740135193,1,2,2,0,-3,-1,-1,1,1
25.16012930870056,-2,-1,-1,3,3,2,2,0,1
25.172661542892456,-4,-6,-6,-9,-9,-5,-5,-10,1
25.17266583442688,0,1,-1,-3,-3,-1,1,3,1
25.181923866271973,-7,-7,-5,-9,-4,-4,-2,-3,1
25.18192768096924,-4,-2,2,2,2,-2,-8,-8,1
25.195863246917725,1,1,3,2,3,2,1,1,1
25.195868730545044,0,-2,-5,-3,1,1,0,-3,1
25.202912092208862,1,1,1,0,-1,-3,-4,-4,1
25.202917098999023,-2,-1,-1,-3,-1,0,3,3,1
25.218427896499634,-1,0,0,6,3,-1,-1,-1,1
25.218430280685425,-1,0,-1,-3,-5,-2,-4,-2,1
25.219948530197144,-1,0,-1,3,7,8,4,2,1
25.219949960708618,0,-1,-3,-7,-6,-2,-2,-4,1
25.232681274414062,1,4,3,2,0,-1,-1,2,1
25.232686042785645,0,0,0,4,2,3,2,2,1
25.242436408996582,0,-1,1,1,1,0,1,0,1
25.242440938949585,-3,-3,-3,-4,-3,-4,-3,-2,1
25.25586175918579,-3,-1,-2,-1,0,0,1,1,1
25.255866765975952,2,0,-1,-3,-2,0,-2,-1,1
25.262628316879272,2,2,0,1,-3,-4,-3,-1,1
25.262632608413696,5,7,4,9,4,4,6,6,1
25.279099941253662,-5,-6,-6,-6,-4,-1,-8,-4,1
25.279105186462402,-1,-2,-5,-9,-6,-3,0,0,1
25.28147578239441,1,0,0,2,-1,-1,0,-1,1
25.28148078918457,1,0,0,0,0,2,1,-1,1
25.292139291763306,-1,1,0,0,-3,-2,3,-1,1
25.29214358329773,3,1,0,2,3,2,4,2,1
25.302576780319214,1,0,-1,1,-2,-2,-6,0,1
25.302581310272217,-2,-2,-1,1,4,0,2,-1,1
25.315786123275757,-1,-1,-2,-8,-5,-4,-3,0,1
25.315789937973022,-1,-1,2,4,1,2,-1,-5,1
25.32260489463806,-6,-6,-6,-12,-15,-10,-7,0,1
25.3226101398468,5,3,4,5,4,0,-1,3,1
25.339205503463745,-3,-4,-5,-4,-2,-1,-5,-4,1
25.339210271835327,0,1,3,5,4,2,2,-1,1
25.341602325439453,1,2,2,6,4,3,5,0,1
25.341606616973877,-6,-8,-6,-9,-9,-6,-8,-6,1
25.35269832611084,1,-1,1,0,1,2,3,1,1
25.352703094482422,-4,-2,-2,-3,-3,-2,-3,-1,1
25.362395524978638,0,0,0,1,1,1,4,1,1
25.36240005493164,0,-1,0,3,4,2,3,-2,1
25.3759765625,-1,-1,-4,-8,-8,-7,-3,-1,1
25.37598156929016,-1,-3,0,4,6,-1,0,-9,1
25.390178442001343,-1,-4,-6,-14,-11,-5,-6,2,1
25.390183448791504,0,1,3,4,3,1,1,2,1
25.39891004562378,2,2,1,5,3,5,3,1,1
25.398913621902466,2,5,1,5,2,3,5,7,1
25.40166401863098,-2,-4,0,3,3,0,-6,-7,1
25.401671886444092,-3,-2,-2,-5,-5,-1,1,-1,1
25.412832021713257,1,2,2,3,1,1,2,-1,1
25.412837266921997,-2,-1,-2,-2,-5,-2,-1,0,1
25.42229700088501,2,3,4,9,8,6,7,2,1
25.422301530838013,-3,-6,-9,-13,-8,-2,-7,-4,1
25.43588423728943,-1,0,2,2,4,-2,0,3,1
25.435889720916748,0,1,-4,-5,-4,-5,-5,0,1
25.450342655181885,1,-3,-1,0,-2,-1,-1,3,1
25.45034694671631,-2,2,3,8,7,2,1,-6,1
25.458230018615723,-3,-3,-5,-10,-12,-6,-6,-6,1
25.458234310150146,-3,-3,-3,-2,-2,-2,-4,-1,1
25.46544337272644,-2,-2,-2,-2,-2,-2,0,-1,1
25.465447902679443,3,1,5,5,2,0,4,1,1
25.48158288002014,0,-3,-3,-5,-3,-1,-4,-6,1
25.481586694717407,-1,-2,0,-2,-2,2,2,5,1
25.4836163520813,-2,1,2,5,3,-1,0,-6,1
25.483619928359985,-1,-6,-9,-20,-19,-8,-10,-5,1
25.495922565460205,2,3,4,5,6,5,7,6,1
25.49592638015747,0,-1,0,0,-1,1,-2,-6,1
25.502623796463013,2,2,2,5,6,1,5,6,1
25.502627849578857,5,5,1,5,2,-1,1,3,1
25.518269777297974,0,-2,0,5,5,6,4,2,1
25.51827335357666,-3,-4,-7,-11,-12,-8,-8,-3,1
25.524601697921753,-1,1,-1,-1,-1,-1,-1,0,1
25.524604320526123,-3,-2,0,2,2,-1,2,-1,1
25.541889905929565,4,2,3,10,8,4,2,-1,1
25.541895389556885,-4,-5,-6,-9,-8,-9,-10,-1,1
25.54436993598938,0,0,-1,-1,-3,-1,-1,-3,1
25.544374227523804,-5,-6,-10,-13,-11,-6,-10,-3,1
25.55611300468445,8,6,4,5,4,2,6,9,1
25.556119203567505,1,-1,4,6,5,4,1,-3,1
25.562809705734253,-1,0,-1,0,0,0,0,-2,1
25.562814712524414,1,0,1,8,7,7,9,3,1
25.578437089920044,-4,-5,-3,-3,-5,-4,-4,-6,1
25.578441858291626,-2,-3,-5,-6,-3,-4,-1,-3,1
25.585466146469116,1,1,1,-1,-1,-1,-3,-1,1
25.58547329902649,2,1,3,7,5,6,7,3,1
25.60160517692566,-4,-2,-6,-14,-12,-9,-9,-6,1
25.601609706878662,-4,-2,-2,-7,-8,-4,-2,2,1
25.603732585906982,-4,-4,-1,0,2,1,1,-2,1
25.60373592376709,5,4,4,5,5,-1,2,5,1
25.61630630493164,3,0,2,7,9,5,3,0,1
25.616312265396118,0,-1,-3,-5,-3,-2,-2,-5,1
25.62250852584839,-2,-2,-2,-2,-3,0,-2,-1,1
25.622512578964233,0,-2,-3,-2,-1,-4,-1,1,1
25.638441562652588,-2,0,0,1,0,-2,-2,2,1
25.63844633102417,-1,-1,-1,-1,0,1,-1,1,1
25.645105600357056,2,3,2,0,1,-1,3,5,1
25.645110845565796,-3,-4,-3,-5,-4,-2,-6,-6,1
25.66893243789673,2,3,4,6,2,0,2,0,1
25.668936252593994,-1,-4,-3,-2,-1,-1,-2,-6,1
25.671029329299927,-3,-3,-3,-10,-4,-1,-3,0,1
25.671033143997192,-1,0,1,1,0,-2,-1,2,1
25.676295280456543,-1,2,0,-1,-1,1,0,0,1
25.67629909515381,5,4,6,13,9,6,8,0,1
25.68325901031494,-2,-3,-4,-2,-4,-5,-2,-2,1
25.683265447616577,-1,-2,-2,-1,-2,1,0,1,1
25.698302030563354,-3,-4,-3,-3,-3,-1,-2,-2,1
25.69830560684204,2,3,4,7,5,6,5,4,1
25.705042839050293,2,0,2,6,6,3,4,-2,1
25.70504665374756,-7,-5,-8,-13,-11,-9,-8,-7,1
25.72151279449463,-4,-2,-1,-8,-9,-7,-6,-4,1
25.72151803970337,-6,-2,-2,-1,1,-1,-12,-5,1
25.723632335662842,0,4,1,2,2,3,1,-1,1
25.723636627197266,2,4,5,9,8,4,2,-1,1
25.735856294631958,-4,-5,-7,-6,-6,-5,-6,-4,1
25.73586082458496,-4,-5,-6,-5,-5,-3,2,-3,1
25.74255919456482,4,6,3,3,1,-1,1,2,1
25.742562770843506,0,-2,1,3,3,3,1,1,1
25.758249282836914,-2,-2,-4,-6,-3,-1,-2,-3,1
25.75825333595276,3,0,1,0,-3,-1,-1,2,1
25.76503586769104,-1,-3,-3,-3,-3,-1,-4,-4,1
25.765039682388306,-1,-2,-2,0,-2,0,2,1,1
25.781962633132935,0,-2,-1,-4,-3,-3,-6,-6,1
25.781967639923096,0,-1,0,0,-1,-1,1,0,1
25.786576509475708,-2,-3,-3,-4,-2,-2,-1,-1,1
25.78658175468445,-1,1,1,0,-4,-1,-4,2,1
25.79631519317627,0,-1,1,9,10,7,5,2,1
25.796319246292114,-1,-1,-1,-3,-3,-3,0,0,1
25.80263638496399,-1,-1,-1,0,1,1,0,-1,1
25.802640676498413,0,-2,-2,-2,-2,0,0,-4,1
25.81844711303711,-1,-2,-2,1,-3,-5,0,2,1
25.818452835083008,2,-2,0,-1,3,2,3,1,1
25.826500415802002,-2,1,-2,-3,-4,-2,-4,-2,1
25.826504230499268,1,0,3,5,7,2,5,-2,1
25.841397047042847,3,4,-2,-3,-5,-6,-8,2,1
25.84140110015869,3,2,1,5,1,3,5,4,1
25.843489170074463,-1,-4,-4,-1,1,3,1,-3,1
25.843491792678833,0,-2,-3,-6,-5,-4,-2,0,1
25.855807304382324,-3,-3,1,3,3,2,2,0,1
25.85581111907959,1,2,2,1,0,0,-1,-1,1
25.862756967544556,-1,-1,1,5,3,3,1,-1,1
25.86276149749756,-1,-1,1,1,-2,-3,-3,-4,1
25.878424406051636,-2,-2,-2,-5,-7,-2,0,2,1
25.8784282207489,2,2,3,5,6,-1,0,-2,1
25.885029315948486,-6,-7,-11,-16,-15,-9,-9,-6,1
25.88503336906433,-3,-1,0,1,1,0,-1,-2,1
25.901906490325928,-1,0,-1,-1,3,4,3,-1,1
25.90191149711609,-2,-1,-3,-3,-5,-1,1,-3,1
25.904969930648804,1,2,3,6,5,2,4,0,1
25.904975414276123,-1,1,-4,-4,-5,-4,-5,-3,1
25.916203498840332,-2,-1,-1,-2,-3,-1,1,-1,1
25.916208267211914,-1,-1,1,0,1,0,-1,0,1
25.922881364822388,0,-3,-2,-1,1,0,0,0,1
25.92288565635681,2,2,1,2,3,3,3,1,1
25.94628381729126,0,-3,-1,2,1,-1,-8,-5,1
25.9462890625,-1,1,-6,-11,-8,-6,-6,2,1
25.952699661254883,-2,-1,2,1,-4,-2,-2,3,1
25.952703952789307,2,-1,-3,-7,-2,1,1,1,1
25.961394548416138,3,2,3,5,2,4,6,2,1
25.961398363113403,0,1,1,4,6,2,4,0,1
25.963480710983276,-5,-3,-4,-7,-10,-6,-7,-1,1
25.963484525680542,-1,-2,-3,0,1,1,-2,1,1
25.97516679763794,-2,-3,-5,-7,-5,-5,-2,-5,1
25.9751718044281,0,1,2,4,0,0,1,3,1
25.98537588119507,-1,-1,1,2,2,1,5,-7,1
25.985380172729492,2,3,2,3,2,-1,-3,-3,1
25.99841332435608,-1,1,-2,-3,-3,-2,-3,-5,1
25.998417139053345,-6,-7,-5,-7,-7,-7,-4,-6,1
26.00551128387451,1,0,0,-1,1,2,-8,2,1
26.00551748275757,-2,-1,-1,1,-1,-2,0,1,1
26.021717071533203,-1,0,3,3,5,4,5,0,1
26.021721839904785,5,2,1,3,1,-1,0,-2,1
26.024065256118774,-2,-1,-4,-7,-4,1,1,-1,1
26.024070262908936,-5,-8,-6,-8,-9,-10,-7,-7,1
26.03527283668518,0,2,-3,-7,-6,-4,-4,0,1
26.035277366638184,-1,0,2,0,1,1,2,1,1
26.044703722000122,2,0,0,6,6,2,4,2,1
26.044708728790283,4,5,7,9,8,8,5,2,1
26.058469772338867,-1,-2,-5,-8,-10,-5,-1,-2,1
26.05847430229187,-3,-4,-5,-6,-6,-5,-3,-4,1
26.065032482147217,0,0,1,0,1,-1,-2,0,1
26.06503653526306,3,3,5,8,6,3,3,0,1
26.081407070159912,-2,-4,-4,-9,-4,-1,-2,-2,1
26.081410884857178,-2,-1,0,1,0,2,0,3,1
26.084174871444702,1,1,-1,-2,-1,-2,0,-1,1
26.08418035507202,-1,-1,1,-2,-1,0,1,1,1
26.095134735107422,8,5,8,13,11,6,5,3,1
26.095139026641846,-4,-6,-5,-5,-4,-3,-5,-6,1
26.104426860809326,-5,-6,-8,-15,-16,-9,-8,-5,1
26.104430675506592,-2,1,-1,-3,-1,1,2,2,1
26.118460178375244,0,1,3,3,4,4,0,1,1
26.11846423149109,3,2,-1,2,2,1,-2,1,1
26.12509250640869,3,2,1,6,5,1,0,0,1
26.125096082687378,-3,-2,-3,-6,-5,-1,-2,1,1
26.141860485076904,-3,-1,1,4,1,-3,-2,-6,1
26.141865015029907,2,3,1,0,2,-2,1,-1,1
26.14438033103943,0,-1,0,0,0,0,2,-1,1
26.144383430480957,-5,-6,-7,-8,-6,-4,-7,-1,1
26.155084371566772,-3,-5,-7,-8,-7,-2,-3,4,1
26.155088424682617,-4,-1,2,5,4,3,5,-5,1
26.164350032806396,2,1,3,4,3,2,2,2,1
26.164353847503662,3,2,1,1,1,2,0,-2,1
26.17838478088379,-2,-2,-3,-1,-1,-3,-4,-1,1
26.17839002609253,-4,-3,-4,-6,-4,-1,-3,0,1
26.18558645248413,1,1,1,1,1,-3,-1,2,1
26.185592889785767,1,-1,-1,2,-2,-2,0,-3,1
26.201538801193237,-2,-1,0,3,3,0,4,3,1
26.201542854309082,2,3,1,1,-1,4,-8,-7,1
26.20425534248352,1,-1,1,0,0,0,1,4,1
26.204261541366577,3,0,1,1,2,3,3,0,1
26.223945379257202,-4,-5,-5,-8,-4,-3,-6,-6,1
26.22394895553589,-3,-2,-4,-4,-4,-4,-2,-1,1
26.225918292999268,-2,-3,1,1,2,1,3,4,1
26.225921154022217,0,-1,-3,-1,0,0,-4,-3,1
26.238451719284058,5,4,5,8,7,5,6,5,1
26.23845601081848,3,0,0,0,0,2,5,2,1
26.245176315307617,-1,0,-2,-2,-3,-1,-3,-3,1
26.245187520980835,-2,2,0,2,3,-1,1,4,1
26.269251585006714,-3,-3,0,3,-1,-1,0,-2,1
26.269255876541138,2,-1,-2,-3,-4,1,-1,5,1
26.271334409713745,1,0,2,7,3,0,5,2,1
26.27133798599243,-3,-2,-4,-4,-2,1,-4,-3,1
26.275120496749878,-3,-4,-6,-14,-16,-8,-9,-2,1
26.275125741958618,0,1,2,4,3,0,-1,1,1
26.283962965011597,1,1,-2,-2,0,-2,-1,-6,1
26.2839674949646,1,3,2,3,2,1,3,2,1
26.298683166503906,1,3,2,8,7,3,3,-1,1
26.298689126968384,-2,-2,-3,-2,-1,-1,-2,0,1
26.305083990097046,-1,-3,-3,-4,-7,-4,-2,1,1
26.30508828163147,-3,-1,0,0,-1,-1,-1,-1,1
26.322114944458008,-1,-1,-5,-1,2,1,4,-2,1
26.3221218585968,-1,-1,-1,-3,-3,-2,1,0,1
26.324888467788696,3,3,3,7,6,4,2,2,1
26.32489275932312,-7,-13,-15,-23,-19,-11,-10,-9,1
26.33515977859497,2,4,1,2,1,2,2,5,1
26.33516573905945,3,1,3,7,7,4,5,2,1
26.344475507736206,-2,-1,-2,-2,-2,-1,-7,-9,1
26.344481945037842,3,0,4,8,5,0,0,0,1
26.358405828475952,-1,0,3,3,1,0,-1,-2,1
26.358410596847534,-3,-3,-4,-7,-6,-4,-2,-2,1
26.365118503570557,-1,-1,-2,2,0,0,0,-1,1
26.36512279510498,-3,0,0,-1,-3,0,-3,-1,1
26.381274938583374,1,-2,0,0,-1,0,1,-2,1
26.381280422210693,4,5,3,8,5,2,4,1,1
26.387685775756836,-10,-9,-10,-17,-14,-5,-12,-10,1
26.387690782546997,-2,0,0,2,2,2,5,2,1
26.395110607147217,-1,-1,-2,-3,-1,1,-2,-1,1
26.395114183425903,-1,-1,-1,0,-1,0,0,-1,1
26.405167818069458,3,3,0,2,5,4,3,0,1
26.4051730632782,1,1,3,5,3,1,1,-2,1
26.418615341186523,-2,-2,-2,-7,-9,-6,-5,-2,1
26.418620824813843,-1,-3,-2,3,2,-1,1,-5,1
26.425265789031982,2,1,-1,-5,-2,1,-5,1,1
26.425270795822144,1,3,2,2,3,2,1,1,1
26.442424535751343,2,-1,1,5,2,1,0,-1,1
26.442429780960083,-3,-2,-2,-4,-4,-2,0,-3,1
26.44734001159668,-1,-3,-1,5,5,1,5,-6,1
26.447343349456787,-2,-1,-5,-8,-8,-4,-6,2,1
26.464064836502075,-1,-2,-2,-5,-3,-2,-3,-3,1
26.464069843292236,-4,-2,-2,0,-2,1,-3,-2,1
26.466293573379517,1,1,3,4,0,0,1,3,1
26.46629786491394,0,1,0,2,3,-1,1,-2,1
26.478643655776978,0,-1,-2,0,0,-3,-1,-2,1
26.478648900985718,-3,-1,-1,-4,-4,-4,-4,-2,1
26.48539447784424,0,1,0,-1,2,0,1,2,1
26.485400199890137,4,2,1,3,0,-1,1,-3,1
26.501384973526,-7,-5,-7,-9,-8,-1,-3,-4,1
26.501389741897583,0,1,2,3,3,1,0,3,1
26.50774908065796,-1,0,0,1,1,2,3,-1,1
26.50775384902954,-1,-3,-4,-10,-11,-9,-8,-4,1
26.524084329605103,0,0,0,2,1,1,2,1,1
26.524089336395264,-1,-2,0,-2,-1,1,0,-3,1
26.526381254196167,1,2,0,1,2,0,1,1,1
26.526384592056274,1,1,0,3,-1,-2,-1,-1,1
26.538485527038574,4,-1,2,1,3,0,3,4,1
26.538490056991577,0,0,-3,-4,-4,-5,-11,0,1
26.545180320739746,-3,1,-1,0,-4,-3,-3,0,1
26.54518485069275,-3,-1,0,2,-1,-1,0,-1,1
26.560940504074097,0,0,2,6,4,1,1,-6,1
26.560945510864258,2,1,-2,-3,-5,-1,-2,0,1
26.56765079498291,-1,-2,0,-1,-1,-1,0,1,1
26.567655324935913,3,-1,0,3,3,2,4,2,1
26.584612131118774,-5,-6,-5,-10,-9,-4,-1,-3,1
26.584616661071777,0,0,1,5,3,3,-1,-1,1
26.58688521385193,-4,-4,-4,-4,-4,-3,-5,-1,1
26.586889266967773,-2,0,2,1,2,1,3,4,1
26.598411321640015,0,1,1,0,0,-2,-2,-5,1
26.59841561317444,-3,-1,-2,0,-1,-2,-1,0,1
26.612977504730225,0,-2,-5,-4,-5,-1,1,-1,1
26.61298370361328,-3,-5,-3,-7,-2,2,-4,-3,1
26.620995044708252,4,4,4,7,4,2,4,8,1
26.620998859405518,-1,-3,0,1,3,3,5,-2,1
26.627643585205078,-3,-2,-6,-11,-7,-5,-6,-2,1
26.62764811515808,1,1,2,2,3,1,6,1,1
26.644031286239624,-2,-2,-3,0,-1,-1,-2,-3,1
26.64403510093689,1,3,-1,-2,-1,2,3,-3,1
26.646394729614258,-1,-2,1,1,-1,1,2,-4,1
26.64639925956726,-4,-5,-5,-5,-8,-6,-9,-5,1
26.658511638641357,-3,-1,1,0,0,1,1,2,1
26.658517122268677,-1,-1,1,2,4,-1,-1,0,1
26.6727237701416,2,2,1,1,2,2,-1,0,1
26.672728300094604,-2,-1,0,1,0,-1,0,-4,1
26.680981397628784,0,-1,-1,-2,1,0,-4,1,1
26.680986166000366,-2,-2,-3,-4,-4,-5,-6,-7,1
26.687763929367065,0,-3,-2,-2,1,4,7,4,1
26.687768936157227,0,1,1,1,0,0,-4,-2,1
26.704302310943604,1,2,3,6,7,4,4,1,1
26.704307794570923,-2,-2,-2,-3,-5,-6,-5,-2,1
26.70721125602722,0,-1,2,-2,-3,-5,-1,0,1
26.707216262817383,-1,-3,-4,-5,-3,1,-1,1,1
26.718430280685425,0,4,1,2,2,-1,-2,-4,1
26.71843457221985,1,-1,-1,-5,-1,0,-1,-4,1
26.725123643875122,1,0,3,8,6,1,0,-3,1
26.725127935409546,0,0,-1,-5,-6,-2,1,1,1
26.740888595581055,0,1,1,2,2,1,1,0,1
26.74089241027832,-1,-2,-3,-3,-4,-1,0,1,1
26.747625827789307,-4,0,-1,-2,-1,-2,-3,1,1
26.747629642486572,1,1,1,1,2,0,0,-1,1
26.764049768447876,2,-2,-1,-3,1,1,1,-1,1
26.764054775238037,6,3,4,8,6,4,7,5,1
26.766278505325317,-3,-5,-7,-9,-12,-9,-9,-6,1
26.766284227371216,-3,-3,-2,-5,-2,0,-3,-3,1
26.77936553955078,-1,1,-1,-1,0,0,-1,-5,1
26.7793710231781,0,0,2,3,3,3,5,5,1
26.784844160079956,4,4,4,9,6,2,0,-1,1
26.784846544265747,3,3,1,6,3,0,3,2,1
26.80160355567932,-7,-11,-8,-13,-13,-8,-9,-5,1
26.801609754562378,1,2,1,1,4,2,3,1,1
26.80768585205078,-2,-1,-1,-2,-2,0,1,0,1
26.807690620422363,0,2,3,5,5,0,1,0,1
26.82415246963501,-4,-2,0,1,3,2,0,-8,1
26.82415795326233,-2,-4,-4,-6,-8,-7,-12,-4,1
26.826550245285034,1,0,-1,0,1,0,0,0,1
26.826555967330933,-2,0,-2,-2,-3,0,-2,-2,1
26.839103937149048,1,0,0,2,3,2,0,1,1
26.839110851287842,-4,-1,-1,-4,-2,-1,1,-1,1
26.845137357711792,1,-1,-2,-4,-5,-3,-1,-3,1
26.84514284133911,-1,-3,-1,0,1,0,0,-5,1
26.860831022262573,2,0,1,1,0,-1,0,0,1
26.860835075378418,-4,-2,0,1,-2,-3,-1,-1,1
26.86761236190796,-2,1,0,2,2,2,1,1,1
26.867615938186646,0,-2,-3,-5,-3,-1,-1,0,1
26.884018182754517,4,0,2,3,-1,1,0,5,1
26.884021759033203,4,1,-1,1,4,1,2,1,1
26.885854959487915,-7,-8,-8,-16,-13,-6,-10,-7,1
26.885859727859497,2,2,3,3,-1,-2,2,4,1
26.897947549819946,0,0,2,2,2,2,0,0,1
26.897953033447266,1,2,0,3,4,0,2,-2,1
26.907322645187378,-1,0,1,-1,-1,1,1,1,1
26.907328367233276,0,-1,-3,-5,-6,-4,-8,-2,1
26.920982599258423,-2,2,0,-3,-4,-4,-1,1,1
26.92098641395569,-3,-1,1,6,3,4,5,1,1
26.927735090255737,-3,-5,-2,-2,0,-1,2,1,1
26.92773938179016,4,4,4,7,8,3,3,1,1
26.944469928741455,-3,-5,-7,-11,-13,-7,-6,-4,1
26.944474458694458,-1,-1,0,-4,-3,-1,-2,-1,1
26.95029091835022,0,1,4,8,6,3,-4,-6,1
26.950297117233276,-3,-3,-3,-4,-4,-1,-2,-2,1
26.95976448059082,2,0,1,2,2,0,0,4,1
26.95976996421814,-2,-3,-4,-5,-5,-1,-4,-1,1
26.966567039489746,2,0,1,2,-1,-1,-1,-2,1
26.96657085418701,2,2,2,7,7,4,6,2,1
26.98074436187744,2,3,0,6,7,2,0,-3,1
26.980747938156128,-8,-9,-13,-23,-21,-11,-8,-4,1
26.987375497817993,-1,6,3,4,3,-4,-7,-6,1
26.98737907409668,-1,-2,1,2,-1,1,1,-1,1
27.003908157348633,3,3,2,5,4,2,6,4,1
27.00391125679016,-3,-3,-5,-9,-9,-3,-5,-6,1
27.005256414413452,-3,-3,-2,-1,-2,-2,-1,0,1
27.005260229110718,-4,-3,-1,-2,-1,-1,-2,-4,1
27.026437282562256,1,0,0,0,-2,-3,-3,-1,1
27.026442289352417,4,1,2,8,6,3,5,0,1
27.02801251411438,1,0,0,0,1,1,5,3,1
27.02801752090454,2,1,3,9,6,3,2,-1,1
27.040879726409912,-13,-14,-16,-28,-27,-16,-18,-7,1
27.04088282585144,1,1,2,3,4,1,-2,-4,1
27.05523681640625,0,1,-2,0,1,3,1,1,1
27.05524206161499,7,6,4,5,4,2,7,9,1
27.063926935195923,5,3,5,10,10,4,6,1,1
27.06393051147461,-7,-9,-10,-15,-15,-10,-11,-5,1
27.066104650497437,0,1,0,0,-1,0,5,5,1
27.066107749938965,-4,-3,-3,-4,-5,-4,-8,-10,1
27.07809090614319,0,1,1,4,7,2,2,1,1
27.07809591293335,4,3,3,6,4,2,2,2,1
27.087207078933716,1,1,0,6,2,2,5,1,1
27.087211847305298,-6,-7,-7,-13,-10,-7,-6,-5,1
27.100934505462646,-2,1,1,2,-1,2,3,-3,1
27.10093879699707,2,4,5,7,7,1,-1,-2,1
27.10762596130371,0,-4,-4,-2,1,0,-1,-1,1
27.107629776000977,-5,-3,-3,-5,-2,-4,-1,-1,1
27.123948574066162,2,2,1,4,1,0,1,1,1
27.12395215034485,-4,-5,-5,-7,-5,1,2,-1,1
27.126527547836304,0,4,-1,0,-2,-3,-3,1,1
27.126530170440674,-2,-1,-3,-7,-4,-3,-4,-1,1
27.1381413936615,-1,-1,2,2,2,1,4,1,1
27.138148069381714,3,3,6,6,6,2,5,2,1
27.14691424369812,2,-1,-1,1,0,-2,0,-3,1
27.14691734313965,-2,-4,-1,-4,-5,-1,0,-1,1
27.16114830970764,0,2,0,-2,0,-1,-2,-1,1
27.161153316497803,3,3,2,6,6,2,1,-2,1
27.16780686378479,-5,-4,-3,-7,-5,-5,-9,-6,1
27.16781258583069,4,3,0,5,6,3,4,4,1
27.184090852737427,-2,-4,-3,-3,-3,-3,-5,-5,1
27.18409538269043,0,0,-1,-1,-3,-2,1,4,1
27.18633222579956,1,1,3,6,8,3,-3,3,1
27.186341285705566,-1,-1,-2,-4,-4,-2,-2,-1,1
27.19768714904785,3,2,3,3,3,2,2,2,1
27.197692155838013,2,2,1,5,4,3,2,1,1
27.207260131835938,-3,-4,-5,-10,-10,-4,-4,-4,1
27.207263946533203,1,2,1,1,1,1,0,-2,1
27.22102689743042,-2,-1,-1,-2,-2,0,-1,-2,1
27.221031427383423,1,0,-1,1,-1,0,-1,1,1
27.228002786636353,-1,2,1,2,2,0,4,1,1
27.228007793426514,-2,-3,-1,2,-1,0,-1,-2,1
27.243991136550903,-2,-3,-3,-3,-5,-4,-1,1,1
27.243995189666748,-4,-3,4,-7,-5,-4,-5,-4,1
27.246320009231567,3,2,-3,6,5,3,2,6,1
27.24632453918457,0,0,-1,0,0,0,1,-2,1
27.257686138153076,1,0,0,-1,0,3,-1,-1,1
27.257691144943237,1,0,-1,2,0,-2,2,-1,1
27.267191410064697,-2,-2,0,-2,-3,-3,2,0,1
27.26719570159912,1,-1,-1,0,0,-2,-3,2,1
27.28095555305481,0,0,-2,0,-1,1,-4,-3,1
27.28096055984497,-1,0,-1,3,2,-1,-2,-2,1
27.287730932235718,-3,-4,-6,-14,-9,-4,-4,-4,1
27.28773546218872,-2,1,-1,2,1,3,2,0,1
27.304444074630737,-3,-2,-3,-2,-4,-4,-3,-3,1
27.304449796676636,-2,-1,-1,2,2,-1,1,-1,1
27.30752158164978,3,3,1,5,1,-3,-1,1,1
27.30752682685852,-6,-6,-5,-13,-11,-4,-6,-5,1
27.31757402420044,1,-1,1,0,0,0,2,0,1
27.317578077316284,3,3,1,2,1,1,0,2,1
27.33448362350464,-3,-7,0,4,3,1,1,-2,1
27.334487676620483,0,1,-2,-1,-1,0,-3,1,1
27.340930461883545,-2,1,0,-2,-1,0,0,-5,1
27.34093475341797,-3,-3,-4,-5,-4,-2,-4,1,1
27.347598791122437,1,-1,1,-1,0,2,0,-2,1
27.34760355949402,1,1,3,6,4,1,2,2,1
27.36343479156494,-2,-4,-5,-8,-10,-6,-5,-1,1
27.363439321517944,-3,1,0,7,7,4,1,-10,1
27.370095014572144,-1,-2,-4,-10,-10,-6,-2,2,1
27.370098114013672,-1,-1,1,2,2,-1,-4,-2,1
27.3871488571167,0,-2,-2,-3,1,2,-4,-3,1
27.387155294418335,1,-2,-1,-1,-1,3,4,0,1
27.389447689056396,1,2,2,5,4,3,4,-1,1
27.38945198059082,2,2,1,1,2,0,2,0,1
27.400622844696045,0,0,2,3,2,-2,0,-1,1
27.400625705718994,-4,-6,-7,-13,-9,-3,-7,-5,1
27.40741539001465,-3,-1,2,5,4,4,0,-2,1
27.407418251037598,-1,-3,-3,-7,-7,-4,0,-2,1
27.422950267791748,1,0,1,5,5,4,2,1,1
27.42295241355896,2,2,3,3,4,0,4,2,1
27.43026041984558,-1,0,-1,-1,-2,-4,-3,-4,1
27.430264949798584,-8,-5,-3,-3,-5,0,1,-10,1
27.446815729141235,0,2,0,1,-1,-3,3,1,1
27.446820735931396,-2,-6,-5,-6,-7,-1,-4,-2,1
27.449392080307007,-1,-3,1,-3,-2,1,-1,-2,1
27.449395656585693,3,3,1,5,3,0,2,3,1
27.461142539978027,4,3,3,5,4,0,2,1,1
27.461148738861084,-9,-8,-10,-13,-13,-9,-7,0,1
27.468610048294067,3,3,3,-1,0,-1,-4,-4,1
27.468616724014282,-2,-3,0,1,0,2,-1,-9,1
27.483498573303223,2,1,3,7,4,3,2,1,1
27.483503103256226,1,3,3,9,8,4,7,3,1
27.49027729034424,-6,-7,-9,-11,-10,-5,-7,-6,1
27.4902822971344,-2,-2,-4,-6,-5,-6,-3,1,1
27.506582736968994,-3,-2,-2,-3,1,1,1,-2,1
27.506587982177734,4,4,2,2,2,1,1,4,1
27.511245250701904,-5,0,0,4,2,0,-1,-5,1
27.511250734329224,2,0,1,4,4,0,2,2,1
27.5205397605896,-1,-1,0,0,-1,0,0,-1,1
27.52054262161255,-1,-4,-4,-4,-6,-3,-6,-4,1
27.527127265930176,0,-2,-3,-7,-5,0,0,1,1
27.527129411697388,-1,-1,-1,-1,2,1,4,2,1
27.551493644714355,-1,-1,0,-2,-3,-1,-2,-5,1
27.5514976978302,2,3,4,9,4,2,1,-1,1
27.553431272506714,0,-1,-5,-6,-5,-5,-5,0,1
27.553434133529663,-1,-2,1,1,-1,-1,-4,2,1
27.566497087478638,-3,-3,-7,-10,-6,-2,-2,-2,1
27.566500663757324,-1,1,1,3,1,-1,3,1,1
27.568554878234863,0,0,0,1,0,1,-6,-1,1
27.568557739257812,0,0,-2,-2,-3,-1,-2,-2,1
27.580899477005005,2,0,1,2,4,3,2,3,1
27.58090305328369,-8,-7,-7,-10,-12,-7,-10,-5,1
27.587934017181396,-1,2,5,8,7,1,9,-1,1
27.587939500808716,3,5,2,7,5,4,4,0,1
27.611517190933228,-3,-8,-9,-11,-10,-7,-8,-2,1
27.611521244049072,1,0,2,-1,1,-1,1,-1,1
27.6140079498291,-1,-3,-1,1,0,0,2,1,1
27.614011526107788,0,0,-1,-5,-3,-2,-1,0,1
27.62767219543457,-6,0,-1,1,1,-1,-1,-6,1
27.62767720222473,3,3,-1,1,2,0,2,1,1
27.630210638046265,-1,-1,-1,-1,0,-2,-3,-2,1
27.630216598510742,-2,-3,-3,-6,-7,-4,-3,-4,1
27.640417337417603,-3,-4,-6,-9,-8,-2,-4,-3,1
27.64042067527771,2,0,3,3,2,1,3,-1,1
27.6480929851532,5,3,3,5,5,3,6,5,1
27.648098707199097,-1,0,-1,0,-1,0,-1,-1,1
27.663521766662598,-2,1,2,2,1,-1,1,1,1
27.66352653503418,0,1,0,2,3,5,6,0,1
27.670799016952515,2,1,-4,-3,-4,-2,-1,1,1
27.670803785324097,-5,-4,-3,-2,-2,-5,-5,-11,1
27.68714952468872,-1,-4,-1,-4,-3,0,3,2,1
27.68715500831604,0,4,2,4,5,3,0,2,1
27.689682960510254,-4,-2,-3,-2,-3,0,0,-2,1
27.689687967300415,1,0,0,0,1,0,0,3,1
27.701294898986816,0,0,-2,0,-1,0,0,0,1
27.7012996673584,1,0,-1,-1,0,-2,-2,-3,1
27.70783567428589,-3,-2,-2,0,0,1,0,-3,1
27.70784020423889,-1,1,-1,-1,-1,1,1,3,1
27.72363305091858,4,4,4,7,5,2,0,0,1
27.72363829612732,0,-2,-2,0,-1,0,1,3,1
27.7301025390625,0,-2,-2,-5,-5,-5,-5,-5,1
27.730106830596924,-3,-2,-2,-3,-3,0,-2,1,1
27.746561527252197,0,1,2,1,3,4,2,2,1
27.746565103530884,2,0,0,2,4,1,5,-1,1
27.74840211868286,0,-3,-1,-1,-3,-3,-2,0,1
27.74840474128723,3,-1,0,-4,-2,0,1,3,1
27.76098918914795,-1,-1,-3,-2,-3,-4,-7,6,1
27.76099395751953,-4,0,1,-1,0,2,3,-4,1
27.767744302749634,2,3,5,6,6,6,9,4,1
27.7677481174469,-3,-5,-4,-5,-6,-6,-6,-9,1
27.78328537940979,3,2,2,3,1,0,2,4,1
27.783289194107056,-6,-5,-4,-3,-2,-2,-4,-3,1
27.791568994522095,2,4,2,5,5,3,5,0,1
27.79157543182373,-1,-2,-1,-2,-4,-6,-3,-3,1
27.80630874633789,-3,-2,-2,-1,-4,-3,-3,-4,1
27.806312084197998,2,1,0,3,0,0,-1,-2,1
27.8077654838562,-4,-3,-2,-6,-5,-3,-4,-4,1
27.80776882171631,1,0,2,3,3,2,3,6,1
30.047590017318726,0,0,1,-1,3,4,4,3,2
30.04759383201599,0,0,1,2,3,2,0,-2,2
30.055229425430298,1,-1,0,0,-2,-1,-1,-1,2
30.0552339553833,-2,-3,-2,-2,-2,0,2,2,2
30.07205104827881,0,-1,-3,-1,-2,-3,-3,0,2
30.07205843925476,0,3,1,2,2,0,1,-1,2
30.073132514953613,0,-1,0,0,-1,-1,0,2,2
30.073137521743774,-2,-1,0,1,-4,-2,-1,0,2
30.08525800704956,-2,-2,-2,-2,0,1,-2,-3,2
30.085262298583984,-2,-2,-2,-4,-4,-2,-2,-2,2
30.093374967575073,-1,-1,-1,1,0,0,0,-2,2
30.09338116645813,3,2,2,3,5,4,4,2,2
30.11009645462036,-5,-4,-5,-6,-5,-4,-4,-3,2
30.110100269317627,-4,-6,-4,-9,-12,-9,-7,-3,2
30.115084171295166,2,0,3,1,2,0,1,-3,2
30.11508798599243,0,-1,-2,1,1,0,-1,-1,2
30.131067991256714,-1,-2,-6,-4,0,1,-2,-3,2
30.131072521209717,1,3,3,5,3,4,2,1,2
30.132187128067017,-1,-1,-1,-3,-1,-2,-3,-3,2
30.132190704345703,0,-1,-2,1,5,1,1,-1,2
30.153868198394775,4,2,3,3,0,1,0,-3,2
30.153874158859253,0,-4,-3,-4,-4,-2,-4,-1,2
30.15504550933838,-1,0,0,1,-3,-1,-2,-1,2
30.155049562454224,-2,-1,-1,-3,-4,-1,0,1,2
30.1675546169281,0,0,-2,0,-2,-1,1,1,2
30.167558193206787,1,0,0,0,3,2,2,-3,2
30.175642013549805,1,3,2,3,0,2,2,2,2
30.17564821243286,-4,-2,-2,-1,0,-1,-4,-4,2
30.1899733543396,-2,-2,-2,-2,-4,-4,-2,-1,2
30.189976453781128,-1,0,1,2,2,-1,-1,3,2
30.198254823684692,0,0,-1,-2,1,0,0,1,2
30.1982581615448,-1,0,0,0,-1,1,-1,-2,2
30.204853534698486,0,2,1,2,-1,-2,-3,0,2
30.204856872558594,-1,0,-2,0,1,-1,1,-3,2
30.212274074554443,-1,0,-1,-1,-1,-1,1,1,2
30.212276935577393,0,-2,-3,-4,-3,-2,0,-1,2
30.228258848190308,-1,0,0,2,0,3,3,1,2
30.2282657623291,-2,2,2,3,1,0,2,-1,2
30.235177993774414,0,-1,-3,-4,0,-1,-1,-2,2
30.23518133163452,-1,1,0,-2,-4,-1,-2,0,2
30.25051259994507,0,1,-1,0,0,1,2,-1,2
30.250516653060913,-2,-3,-3,-4,-3,0,-2,-1,2
30.258541345596313,-1,-1,0,0,-1,-1,0,-2,2
30.258545398712158,2,-1,0,2,2,0,1,-1,2
30.27416706085205,0,1,-1,-1,2,0,1,-1,2
30.274173498153687,2,1,2,-1,-1,2,1,0,2
30.274879217147827,-3,-1,-3,-2,0,-1,-3,-2,2
30.274882793426514,0,-2,-2,-2,-4,-1,0,0,2
30.287415027618408,0,0,1,-2,-2,-2,0,2,2
30.287418127059937,0,0,0,2,2,-1,1,-2,2
30.29492425918579,1,0,0,3,2,-1,-1,0,2
30.294927835464478,1,-1,-1,-1,-2,0,-2,-2,2
30.309983730316162,-1,1,1,0,2,0,0,-1,2
30.309988498687744,-5,-5,-5,-7,-7,-6,-5,-3,2
30.325507164001465,-4,-4,-2,-6,-7,-3,-4,-2,2
30.325510263442993,-1,0,0,-2,1,0,1,-2,2
30.342368841171265,2,-1,2,1,0,0,1,-1,2
30.34237504005432,1,0,0,3,2,2,0,-1,2
30.34388303756714,1,0,-1,1,-1,0,1,0,2
30.343891143798828,-2,-2,-3,-2,-1,-1,-3,-4,2
30.348278760910034,-1,-2,-3,1,-3,-3,-3,-2,2
30.34828758239746,-1,-1,-1,-4,-1,-2,0,0,2
30.355343103408813,-2,-1,-2,-1,-1,1,-2,0,2
30.355348110198975,-2,0,-1,-1,-3,-1,-1,2,2
30.370391130447388,1,2,1,2,2,-1,0,0,2
30.37039589881897,1,-1,-3,-2,-2,0,-1,-1,2
30.38609266281128,1,2,1,1,1,3,2,-1,2
30.386098384857178,-4,-4,-3,-3,-1,-3,-4,-4,2
30.39347791671753,-4,-3,-3,-5,-4,-1,-2,-1,2
30.39348554611206,1,2,1,3,2,0,3,0,2
30.39471125602722,0,-1,2,1,1,-1,-1,-1,2
30.394714832305908,2,0,0,2,2,1,3,2,2
30.407682418823242,-2,-1,-1,-2,-3,1,-1,-2,2
30.407686471939087,-1,-1,-1,0,-3,0,-1,0,2
30.41552996635437,-2,-2,-3,-5,-2,0,0,-1,2
30.415533781051636,0,0,3,2,4,-2,-1,-1,2
30.430264711380005,-2,-4,-5,-3,-5,-3,-3,-2,2
30.43026876449585,1,-1,-1,-3,-3,-1,-1,0,2
30.438449382781982,2,3,0,2,-1,1,0,-2,2
30.438453674316406,0,-2,-1,-3,-6,-1,-2,1,2
30.453375816345215,-1,1,1,1,6,2,1,0,2
30.45337963104248,-2,-3,-3,0,-4,-3,-1,-1,2
30.454320430755615,-3,-4,-4,-7,-3,-5,-4,-2,2
30.454323053359985,1,2,0,-1,-2,-1,-1,-1,2
30.467644453048706,1,-1,-1,1,3,1,1,-1,2
30.46764898300171,0,0,1,1,2,2,2,0,2
30.475757837295532,0,0,1,2,2,0,1,0,2
30.475765466690063,0,1,-1,0,0,0,0,-1,2
30.49031972885132,-3,-3,-3,-7,-7,-2,-3,-1,2
30.4903244972229,1,-1,-1,0,1,0,-1,0,2
30.498448133468628,-2,-2,-1,1,-1,0,-1,-2,2
30.498451948165894,-2,1,0,2,1,1,1,1,2
30.513420343399048,2,1,2,1,2,1,2,2,2
30.513424158096313,-1,0,-2,-3,-5,-2,-1,-1,2
30.51442265510559,1,0,0,2,3,0,2,-1,2
30.514426231384277,-3,-4,-5,0,2,-1,-3,-3,2
30.52912187576294,-1,-1,-1,1,-2,-2,-2,-2,2
30.529125928878784,-1,2,2,1,1,2,1,-1,2
30.535408973693848,-2,-4,0,-2,-7,-1,-3,0,2
30.53541350364685,1,0,1,-2,-1,0,0,2,2
30.550235986709595,-3,-2,-2,-2,-3,-3,-3,-1,2
30.550240516662598,0,-2,-1,0,1,-1,1,-2,2
30.55895447731018,2,0,-2,0,-1,1,1,-1,2
30.558960914611816,0,1,0,2,4,2,2,-3,2
30.573505878448486,-1,-2,-2,-5,-6,-4,-3,-1,2
30.573510885238647,2,1,0,2,1,0,0,2,2
30.57449460029602,-5,-4,-1,-1,2,0,-1,-1,2
30.574498414993286,0,0,0,1,-1,0,-1,0,2
30.587799072265625,3,1,3,4,1,2,2,-2,2
30.587803602218628,0,-1,0,0,2,1,-1,1,2
30.595228910446167,3,3,1,1,5,4,6,-1,2
30.59523344039917,-5,-4,-4,-6,-14,-8,-11,-3,2
30.610291957855225,-1,0,0,-1,1,-1,2,0,2
30.61029601097107,-1,-2,0,0,1,0,3,0,2
30.618475675582886,0,0,-1,0,2,-1,0,0,2
30.61847972869873,2,3,3,4,4,3,2,-1,2
30.633768558502197,0,-1,-2,-1,-3,-1,-2,-5,2
30.633775234222412,-3,-1,-7,-5,-5,-5,-5,0,2
30.635223627090454,1,0,-1,-1,-1,0,-1,2,2
30.63522744178772,2,-1,1,0,-1,-3,2,0,2
30.647783756256104,1,0,1,1,0,-1,-1,1,2
30.647788524627686,-1,-3,0,-4,-2,1,-2,-4,2
30.663544178009033,-1,-2,-1,-3,-6,-2,-3,0,2
30.663548946380615,-2,-1,-4,0,0,0,0,-1,2
30.67032766342163,0,1,0,-2,-1,0,0,0,2
30.670331716537476,0,-1,1,3,3,0,-1,0,2
30.677896738052368,-3,-3,-4,-4,-2,-2,-4,-2,2
30.677900791168213,-1,0,-2,-4,-4,-1,-1,-1,2
30.69286298751831,-2,-1,2,3,5,1,0,0,2
30.6928653717041,-1,1,-2,-2,-2,-1,0,0,2
30.6945059299469,1,0,0,-1,-6,0,-1,0,2
30.694511651992798,-3,-2,-1,-3,-3,-3,1,1,2
30.707768201828003,1,0,-2,-4,-1,-1,-2,-1,2
30.707772254943848,0,-1,1,-2,-3,-1,-1,0,2
30.71594476699829,1,2,1,5,2,-1,1,-2,2
30.71595048904419,-2,-3,-4,-4,-1,0,0,-3,2
30.73043131828308,0,1,2,4,2,2,2,0,2
30.730438947677612,1,-1,0,2,1,-1,-1,1,2
30.73786211013794,-3,-3,-6,-6,-10,-7,-6,1,2
30.737865924835205,-3,-2,-5,-6,-1,-2,-1,2,2
30.753526210784912,-2,-2,-2,-2,-3,0,-1,1,2
30.753531217575073,1,0,1,1,2,1,3,1,2
30.754642009735107,4,1,3,2,2,-1,0,-5,2
30.754645586013794,2,0,1,4,2,0,-2,0,2
30.77641248703003,-1,0,-1,-2,-2,-2,-3,0,2
30.776418685913086,-4,-2,-2,-3,-3,0,-2,-3,2
30.77742910385132,-4,-1,-1,-1,0,1,0,1,2
30.777432441711426,0,2,3,3,2,2,3,-1,2
30.79030203819275,2,-1,-1,3,1,1,3,1,2
30.790306568145752,1,-1,-2,-1,-6,-3,-5,-2,2
30.79801321029663,-1,-1,-1,-2,0,1,0,-1,2
30.798017263412476,-2,-1,0,0,-4,-3,-1,-2,2
30.81358003616333,-1,0,0,-3,0,-2,-1,-2,2
30.81358575820923,-3,-3,-3,-5,-1,-1,-4,-2,2
30.814587354660034,0,-2,1,2,2,2,0,0,2
30.814589977264404,1,1,2,1,0,0,1,-2,2
30.827766180038452,-2,-2,-3,-2,-3,-1,-2,-3,2
30.827770709991455,1,0,2,4,1,2,1,1,2
30.835166215896606,-1,-1,1,-1,-1,-2,-1,-2,2
30.835170030593872,-1,-3,-3,-5,-5,0,0,-1,2
30.849753379821777,1,1,0,1,1,-2,0,1,2
30.849756002426147,-2,0,0,2,0,0,-1,-2,2
30.857614994049072,-1,-2,0,1,0,2,-1,0,2
30.8576180934906,1,1,-1,1,1,0,1,2,2
30.873788833618164,-1,-2,-2,-1,-3,1,-1,-1,2
30.873794555664062,-2,-1,-3,-3,-2,-1,0,-2,2
30.87592315673828,0,-2,-2,1,0,-2,-3,-3,2
30.87592887878418,-2,-4,-4,-3,-1,-3,-5,-3,2
30.887834072113037,2,1,2,2,2,1,1,2,2
30.88783860206604,-1,-2,0,4,1,-3,-3,-3,2
30.895771265029907,-2,-2,-3,-5,-5,-3,-2,1,2
30.8957781791687,-2,0,-1,-3,1,2,0,-1,2
30.91303253173828,-1,-1,-1,-1,-2,0,-1,-2,2
30.913037538528442,0,2,2,4,4,2,3,1,2
30.91775870323181,-2,-2,-3,0,1,-1,-1,-4,2
30.917765140533447,1,-2,-3,0,-1,-3,0,0,2
30.941659450531006,-4,-3,-3,0,-1,-1,-2,0,2
30.94166350364685,-1,-1,0,-4,-3,-1,-1,-3,2
30.942684173583984,-1,1,1,-4,-4,-2,1,0,2
30.942687273025513,3,1,1,3,-1,-1,-2,-1,2
30.947787523269653,0,1,0,5,7,2,0,-4,2
30.947791814804077,0,-1,-1,1,-1,-3,0,1,2
30.955236434936523,-3,-3,-4,-6,-4,-2,-3,-3,2
30.955240964889526,-1,-1,2,0,-2,1,0,-2,2
30.970592498779297,-1,-1,-1,-2,-2,0,0,-2,2
30.970597982406616,-2,-3,-3,0,-3,-3,-4,-1,2
30.97743558883667,-4,-5,-5,-8,-7,-5,-4,-1,2
30.977440118789673,-3,2,-1,-6,-2,0,-1,0,2
30.993680477142334,0,-2,-1,0,0,-2,-2,-2,2
30.99368667602539,3,2,-1,-3,1,1,2,1,2
30.99472737312317,2,0,0,4,1,2,1,-1,2
30.994731426239014,0,-2,-2,2,2,0,-1,-1,2
31.007730960845947,-2,-1,-2,-5,-5,-3,-2,-2,2
31.007734775543213,-1,1,0,0,1,1,-1,-1,2
31.01528787612915,1,0,-1,2,2,1,0,0,2
31.015292167663574,1,-1,-2,-1,-2,1,0,-1,2
31.030254125595093,0,-1,-2,-4,-8,-6,-3,-2,2
31.030258417129517,0,-3,-2,-2,0,0,1,-1,2
31.037593603134155,1,5,2,2,3,-2,0,-1,2
31.037596464157104,-2,-2,0,1,3,1,1,-1,2
31.053321838378906,-3,-3,-3,-1,-2,1,-1,-1,2
31.05332636833191,-1,-2,-4,-4,-4,-3,-1,-1,2
31.054269790649414,-4,-4,-2,-3,-3,-3,-5,0,2
31.054272651672363,-1,-1,-1,2,1,-1,-2,0,2
31.06773018836975,1,1,0,-2,0,0,1,0,2
31.067733764648438,-3,-1,-2,-1,0,-1,-2,-1,2
31.07528066635132,1,1,0,2,1,5,3,2,2
31.075284242630005,-1,0,-1,1,1,-3,-2,-1,2
31.09019637107849,-2,-4,-2,-5,-2,-3,-5,0,2
31.090200662612915,-1,1,1,-1,3,1,1,-2,2
31.098121881484985,0,0,0,3,2,1,2,0,2
31.098126888275146,-2,0,-1,-3,-2,0,-1,0,2
31.112712621688843,1,0,1,0,2,2,1,-1,2
31.112716674804688,0,-3,-3,-2,-5,-2,-1,-2,2
31.121153116226196,-1,-2,-1,-2,-2,-2,-2,1,2
31.121158361434937,0,-1,1,-2,0,0,0,0,2
31.127851486206055,0,1,0,3,3,2,-1,0,2
31.12785816192627,-1,-1,0,-5,-3,-2,-1,-1,2
31.135525941848755,-2,-4,-1,0,3,-1,-2,-2,2
31.135531425476074,-2,-1,0,0,-2,0,0,0,2
31.149896144866943,1,1,1,2,2,1,2,-1,2
31.149899005889893,0,0,-1,-1,0,1,-1,0,2
31.158037185668945,0,-1,-3,-3,-4,-2,-2,-3,2
31.158042669296265,0,0,1,1,1,1,2,0,2
31.174105644226074,-2,-4,-5,-6,-4,-2,-2,0,2
31.174108028411865,-1,0,0,1,-1,-2,0,0,2
31.180492401123047,1,1,3,2,2,0,2,1,2
31.180494785308838,0,0,0,0,-2,-3,-1,0,2
31.18830895423889,-3,-1,0,2,-1,-3,-3,-3,2
31.18831515312195,-2,-3,-3,-1,-1,-2,-3,-1,2
31.19534420967102,-1,0,0,0,2,2,1,2,2
31.195348262786865,0,1,0,2,2,1,0,0,2
31.226728200912476,-2,-3,-2,-2,0,-2,-1,-6,2
31.2267324924469,-2,-2,-3,-3,-2,-3,-4,0,2
31.227692365646362,-1,0,1,0,-3,-1,0,-1,2
31.22769522666931,0,-1,-1,1,1,0,0,-1,2
31.232671976089478,0,0,1,3,0,1,1,1,2
31.232675790786743,2,0,1,0,3,2,2,-2,2
31.240930795669556,-1,-3,-2,-1,-3,-3,-3,0,2
31.24093532562256,0,-1,-1,2,-1,-3,-3,-3,2
31.256173372268677,1,0,0,-2,0,1,0,-1,2
31.2561776638031,-2,-1,0,1,-1,-1,-1,-1,2
31.257123947143555,-1,-2,-1,0,0,2,1,0,2
31.257126808166504,-3,-4,-4,-5,-4,-2,-1,-2,2
31.27035903930664,1,-1,-1,-1,-1,-4,-1,1,2
31.270363807678223,0,0,0,-2,1,0,0,-2,2
31.2780544757843,2,4,1,0,1,1,2,-2,2
31.278059005737305,0,1,1,1,3,3,3,0,2
31.29270887374878,-3,-5,-5,-5,-6,-3,-2,1,2
31.292712926864624,0,-1,-1,0,-1,-2,-1,1,2
31.300620079040527,0,0,-2,0,1,0,-2,0,2
31.300623416900635,0,1,0,-1,-2,-3,0,0,2
31.315953731536865,1,0,0,0,0,2,2,-1,2
31.31595778465271,0,-2,0,0,0,0,-1,-1,2
31.317022800445557,0,-1,1,0,0,1,-1,-2,2
31.317027807235718,0,-2,-2,-1,2,-2,-1,-1,2
31.330891609191895,-1,0,1,-2,-3,-1,-1,1,2
31.330897092819214,-1,-1,0,2,-3,-1,1,-1,2
31.338276147842407,-2,-1,0,-3,0,-2,-3,-2,2
31.338282346725464,2,-1,0,1,3,2,4,2,2
31.352880239486694,0,1,-2,1,1,1,2,0,2
31.35288429260254,2,0,2,-1,-3,-2,1,0,2
31.36094641685486,-1,-2,0,-1,-3,0,-2,0,2
31.360949993133545,-3,-2,-5,-9,-9,-6,-6,-1,2
31.384310483932495,-2,-1,0,1,2,1,1,-2,2
31.38431668281555,-2,-2,-4,-4,-1,0,-2,-3,2
31.385589838027954,1,-1,-1,-1,-1,-1,2,-1,2
31.385594129562378,-1,-1,0,-2,-1,0,-4,-1,2
31.390458345413208,-1,2,3,5,4,-1,2,2,2
31.39046311378479,3,2,1,3,2,1,2,-1,2
31.39789915084839,-1,-2,-5,-5,-3,-4,-4,-2,2
31.397903203964233,0,0,1,0,-1,4,6,1,2
31.4128897190094,-3,-5,-7,-8,-8,-5,-10,-2,2
31.41289496421814,-3,-3,1,-1,0,-1,-2,-2,2
31.420466423034668,0,1,1,3,3,2,0,1,2
31.420469284057617,0,-2,-2,-4,-4,-2,-2,0,2
31.43638849258423,-1,1,0,1,2,-2,0,-2,2
31.436395406723022,0,1,-2,1,2,0,0,-2,2
31.437801361083984,0,-1,-2,-5,-5,-1,1,1,2
31.437805891036987,-3,-2,0,0,-2,-2,-3,-3,2
31.450673818588257,3,1,0,4,2,0,1,1,2
31.450679302215576,-1,-2,-2,-4,-4,0,-3,-1,2
31.458035230636597,-1,0,-1,0,0,1,1,-3,2
31.458040475845337,2,2,-2,0,0,-1,-1,1,2
31.472379207611084,2,1,2,-3,-3,-1,1,-1,2
31.472382068634033,-2,-2,-3,2,-2,-1,-1,-1,2
31.480627059936523,-5,-5,-5,-2,-6,-6,-6,-3,2
31.48063015937805,-3,-1,-2,-3,1,0,-2,-2,2
31.495660305023193,0,1,1,0,-1,-2,-1,-1,2
31.49566388130188,0,-2,-1,0,0,1,0,-1,2
31.496158123016357,0,2,2,1,5,0,1,1,2
31.496159553527832,-3,-7,-9,-14,-13,-6,-8,-8,2
31.51041316986084,0,-1,-1,1,1,2,1,0,2
31.510417938232422,1,2,0,0,-3,-1,-1,3,2
31.517913341522217,2,0,1,3,1,0,1,0,2
31.517948627471924,1,2,3,2,2,1,3,0,2
31.532896280288696,-1,-1,-1,2,2,1,-1,-2,2
31.532902240753174,-1,-1,-1,0,0,-2,-1,-1,2
31.541075706481934,0,-3,-2,0,-3,-2,-1,-1,2
31.54111099243164,-1,-1,-1,2,3,0,0,2,2
31.556068897247314,-3,-4,-2,-4,-4,-1,1,-1,2
31.55607295036316,-2,-1,-2,0,2,-3,-2,0,2
31.557037591934204,-1,1,4,6,5,1,1,-2,2
31.557040452957153,-1,-3,-1,0,-1,0,-1,0,2
31.57033348083496,-1,2,0,-2,0,-3,0,-1,2
31.570337772369385,1,1,1,0,2,2,4,0,2
31.57823348045349,1,-3,-2,-1,0,0,-1,-2,2
31.57823944091797,0,-1,-1,-2,-4,-1,-3,0,2
31.592732429504395,-2,0,0,0,1,2,-3,0,2
31.592737436294556,-3,-2,-1,-1,-1,-1,-2,0,2
31.601091384887695,0,-3,-3,-4,-2,2,0,-1,2
31.60109567642212,0,2,2,6,2,-1,2,0,2
31.61605668067932,0,3,1,3,5,2,1,-1,2
31.616060495376587,2,2,1,0,-2,0,-1,-1,2
31.616968154907227,-2,-3,-2,-7,-10,-6,-5,-1,2
31.616970777511597,0,0,1,2,-1,1,3,1,2
31.63029909133911,0,-2,-1,-4,-5,0,-1,-3,2
31.630302667617798,-3,-1,1,3,2,1,-1,-1,2
31.637617349624634,-1,1,-2,-4,-1,1,0,-2,2
31.6376211643219,-1,0,-2,-1,-3,-1,-2,-1,2
31.652668237686157,1,0,1,5,4,1,1,1,2
31.652671813964844,-1,-2,-3,-3,1,1,-2,-1,2
31.660507917404175,-4,-1,-3,-3,-4,-2,-4,-3,2
31.660511255264282,-3,-1,-2,-3,-2,-1,0,0,2
31.6760036945343,0,0,0,-1,-1,1,-1,-1,2
31.676008701324463,-1,-3,-2,-5,-5,-2,1,1,2
31.67701506614685,3,3,1,2,1,1,2,3,2
31.67701816558838,-2,-1,0,2,1,-2,-2,-3,2
31.690593957901,0,-1,-1,-1,-3,-2,2,1,2
31.69059920310974,-3,0,-1,-2,-1,-1,0,-2,2
31.698216676712036,0,0,0,-1,1,-1,1,1,2
31.69822382926941,1,-1,1,4,1,-1,-1,-1,2
31.712910413742065,0,0,-2,-1,-2,-1,-1,-1,2
31.712915182113647,0,-2,-1,-1,-4,-3,-2,-1,2
31.721208095550537,0,-3,-2,-5,-2,0,1,-3,2
31.721214294433594,1,0,1,1,1,1,1,-2,2
31.735934257507324,0,-1,0,1,-1,-1,-1,1,2
31.73593759536743,1,-1,0,1,0,1,-1,-1,2
31.736403226852417,-2,-1,0,0,1,0,-1,-2,2
31.73640489578247,-1,-1,-4,-5,-2,-1,-1,-2,2
31.750290632247925,0,-1,1,1,-1,-1,-1,-1,2
31.75029492378235,0,-1,-3,-1,-1,-2,-2,2,2
31.757803916931152,2,1,2,4,3,1,2,-1,2
31.75780725479126,-1,-1,-3,-4,-2,-1,0,-1,2
31.77474355697632,0,0,-1,-1,-1,-2,-1,-1,2
31.774747610092163,1,1,0,-2,-1,-1,1,-2,2
31.781017303466797,0,-2,0,1,1,-1,0,0,2
31.78102135658264,-2,-5,-3,-5,-6,-3,-4,0,2
31.796210050582886,-2,-3,-1,-5,-3,0,1,-2,2
31.7962167263031,0,0,0,0,0,0,0,0,2
31.797812461853027,0,1,0,1,-1,0,0,0,2
31.79781746864319,1,2,1,2,3,1,1,1,2
31.811647176742554,-1,-1,-1,1,0,0,3,1,2
31.811651945114136,-2,-2,-4,-1,0,-1,-4,-4,2
31.81792974472046,-3,-1,-1,-2,-5,-4,-2,2,2
31.8179349899292,0,1,0,1,2,2,1,-2,2
31.83285927772522,-2,-2,-1,-5,-5,-3,-2,-1,2
31.832863807678223,-3,-1,-1,-1,-1,1,-1,0,2
31.841005563735962,1,0,-1,2,1,0,1,0,2
31.841009378433228,-2,-4,-3,-5,-3,0,-2,1,2
31.856001615524292,-2,1,1,1,0,2,0,1,2
31.856006145477295,-2,-1,0,-2,-2,-1,2,-1,2
31.857014179229736,-2,-3,0,-1,0,-1,0,-2,2
31.857017517089844,0,1,3,6,3,-1,0,1,2
31.870333671569824,2,1,1,4,6,1,2,1,2
31.870337963104248,-1,-3,-1,-6,-4,-1,-2,-4,2
31.877926349639893,-3,-2,-5,-6,-6,-6,-4,1,2
31.877930641174316,1,0,1,2,4,0,1,-1,2
31.89308762550354,-2,-1,-2,-2,0,-2,-4,1,2
31.893091440200806,-1,0,3,2,-1,-3,0,0,2
31.901127338409424,1,0,0,2,1,3,0,-2,2
31.901132583618164,0,-1,-1,-3,-2,1,1,0,2
31.916084051132202,-3,-3,-3,0,-1,-2,-1,1,2
31.9160897731781,1,3,1,3,3,0,0,0,2
31.91709876060486,0,-1,0,2,0,1,0,-1,2
31.917101621627808,-3,-2,-2,0,-1,-4,-2,-2,2
31.930425882339478,0,0,0,-2,-3,0,-2,-1,2
31.93043088912964,1,0,0,2,1,1,2,3,2
31.937734603881836,-4,-4,-5,-8,-5,-4,-6,-5,2
31.93775963783264,0,0,-1,0,-3,-2,-1,-2,2
31.952835083007812,1,-2,-2,-1,0,-1,-1,1,2
31.952840566635132,1,0,0,1,0,0,1,-1,2
31.961226224899292,2,2,2,2,4,3,2,5,2
31.96123218536377,0,1,2,2,3,0,1,-2,2
31.97542643547058,-2,-2,-4,-6,-3,-1,-4,-4,2
31.975428819656372,-1,-5,-4,-5,-4,-3,-2,0,2
31.976128101348877,-1,-1,-2,1,4,1,-1,0,2
31.97612953186035,-2,-1,-2,-3,-5,-4,-2,2,2
31.990749835968018,-2,-2,1,0,-2,1,0,0,2
31.99075436592102,0,1,1,2,0,-3,0,-2,2
31.997963428497314,-1,0,-3,-1,-3,-1,1,-3,2
31.997967958450317,0,1,2,1,2,2,1,0,2
32.01319479942322,1,-1,1,0,0,-2,1,-4,2
32.01320004463196,-3,-1,-1,-3,-3,0,-2,1,2
32.02099084854126,0,-2,0,-1,-4,-2,-2,-1,2
32.020994901657104,0,-1,-2,-1,2,0,0,-1,2
32.036051988601685,1,-1,-1,0,1,2,1,-1,2
32.03605651855469,2,1,1,3,4,2,2,1,2
32.03702259063721,-2,0,2,1,-4,-2,-3,0,2
32.037025690078735,-1,-2,-3,-4,-3,-1,-2,-3,2
32.050485134124756,-3,-2,-2,-2,0,-1,-1,1,2
32.05048990249634,0,0,0,0,1,1,1,-2,2
32.05780339241028,1,1,0,-2,0,0,0,0,2
32.05780792236328,-1,-1,0,0,0,0,-1,-1,2
32.072664737701416,-1,1,-2,-1,0,-2,-1,0,2
32.0726683139801,-1,-1,0,-2,-1,1,-1,-2,2
32.081456422805786,0,0,0,-2,2,2,0,1,2
32.08146333694458,0,0,0,0,-2,1,0,0,2
32.095378160476685,-1,-2,-2,0,1,-1,-3,-2,2
32.09538269042969,-3,-3,-3,-4,-6,-3,-3,1,2
32.103482484817505,-2,-2,-2,1,2,1,-2,-4,2
32.10348677635193,2,2,0,0,2,2,2,3,2
32.11037349700928,1,0,0,-3,-4,-3,-3,0,2
32.1103789806366,0,1,2,4,2,-1,2,1,2
32.11829853057861,-2,-3,-2,-1,-3,-1,-2,-5,2
32.11830186843872,0,-2,-1,0,-2,-3,-2,0,2
32.132803440093994,0,-2,-3,-2,-2,2,0,-3,2
32.13280725479126,-2,-3,-1,-2,1,-2,-3,-4,2
32.14096522331238,1,1,3,3,1,0,2,3,2
32.140969038009644,1,1,-1,2,1,1,1,0,2
32.155303716659546,-3,-4,-6,-6,-9,-5,-6,-3,2
32.15530800819397,-2,-3,-4,-2,-1,0,-1,0,2
32.16356110572815,0,-1,0,-1,-3,-1,0,-2,2
32.163564920425415,0,-2,-1,-1,1,0,0,0,2
32.17857551574707,-1,0,0,0,-2,-2,0,0,2
32.178579807281494,-2,-1,-3,1,0,1,-2,-1,2
32.17976474761963,-2,-1,-1,-3,-2,-1,-3,-1,2
32.17976975440979,0,-1,0,1,-3,-2,0,-1,2
32.19281625747681,0,-2,-1,1,2,1,0,-1,2
32.19282031059265,0,-1,1,0,1,2,0,0,2
32.20097517967224,2,2,1,0,-2,-2,1,0,2
32.20097875595093,-2,-2,-3,-3,3,3,-1,-3,2
32.21541476249695,-2,0,0,-2,-4,-3,-1,-1,2
32.21541929244995,1,1,-1,2,-1,1,0,0,2
32.22335481643677,0,-2,-1,-2,-2,0,1,-1,2
32.22335767745972,2,2,3,6,5,0,4,-1,2
32.23842525482178,-1,-1,0,-1,0,0,-1,-2,2
32.238428831100464,-3,-3,-5,-8,-6,-5,-4,0,2
32.239327907562256,-2,-1,-1,3,-1,-1,-2,0,2
32.239330530166626,-2,-2,-3,-5,-4,-5,-4,-3,2
32.25281071662903,0,2,1,3,5,3,4,1,2
32.25281500816345,1,-1,-1,-2,-2,-1,0,-1,2
32.26103210449219,-2,-2,-1,-1,-1,1,-2,0,2
32.26103639602661,-2,-1,0,-5,-5,-2,0,-1,2
32.27526497840881,-1,-2,0,-1,0,0,0,0,2
32.2752685546875,1,0,1,0,0,0,1,0,2
32.28350901603699,1,-1,1,0,0,-2,-2,-2,2
32.28351306915283,-2,0,1,2,0,0,1,0,2
32.29841065406799,-1,-1,-1,1,0,-1,-1,-3,2
32.298415184020996,-1,0,-2,-3,-3,0,-2,-1,2
32.29956674575806,-1,0,-1,2,1,-1,1,1,2
32.299569606781006,0,0,-1,-6,-4,-2,-1,0,2
32.31326127052307,-1,0,1,2,1,0,0,1,2
32.31326675415039,0,-2,-1,-3,-1,-1,-2,-3,2
32.321009397506714,-1,-2,1,1,3,-1,0,-1,2
32.321014642715454,1,0,-2,0,-2,0,-1,-1,2
32.33532381057739,-3,-1,-1,2,2,1,0,-1,2
32.335328102111816,-2,-1,-1,0,-1,0,1,1,2
32.343568086624146,0,-2,-1,-5,-2,-2,0,0,2
32.34357285499573,1,0,0,-4,0,0,-2,-3,2
32.35903024673462,1,0,0,2,0,2,-1,0,2
32.35903596878052,-4,-2,-3,0,-2,-2,-2,-2,2
32.360113859176636,-1,-1,0,1,1,3,2,0,2
32.36011719703674,-2,-2,-1,-2,-3,-4,-3,2,2
32.37275505065918,1,3,1,1,-1,-1,2,1,2
32.372759103775024,0,-1,0,5,4,1,-1,-3,2
32.38073492050171,1,-1,-3,-5,-6,-4,-2,-1,2
32.380738973617554,1,1,1,4,1,3,1,-1,2
32.39556050300598,-1,-1,-2,-3,-2,-3,-3,-2,2
32.39556431770325,0,-1,0,1,1,1,-2,2,2
32.403491735458374,-1,2,0,1,3,0,0,-2,2
32.40349555015564,-3,-4,-3,0,-1,1,-1,-3,2
32.41849708557129,-2,-1,-2,-2,-3,-3,-4,0,2
32.418500661849976,-1,0,0,-2,1,-1,-1,0,2
32.419450521469116,2,2,-1,0,-1,-1,0,-1,2
32.4194540977478,1,-1,1,1,3,1,-1,0,2
32.4334979057312,0,-1,-3,-2,-1,0,1,-4,2
32.43350172042847,0,-1,-4,-5,-6,-3,-4,-4,2
32.441014766693115,-2,-1,0,-1,-1,-1,-3,1,2
32.44101858139038,1,-1,0,3,1,2,1,-3,2
32.45526719093323,0,-3,0,-1,0,2,0,2,2
32.455270767211914,1,1,0,1,-1,0,0,1,2
32.463852405548096,-1,0,-1,2,1,1,-1,-1,2
32.46386003494263,-3,-2,-5,-6,-5,-5,-4,-1,2
32.47868347167969,-4,-1,0,-4,-3,-4,-1,-2,2
32.478689193725586,2,0,1,1,0,-1,2,-1,2
32.479857444763184,1,0,0,-1,4,3,-1,0,2
32.47986102104187,-2,-1,-1,-3,-4,-3,-4,0,2
32.492791175842285,1,-3,-2,1,-2,-2,-3,-2,2
32.49279499053955,-1,1,-1,-3,0,-1,1,-3,2
32.50103950500488,0,-2,-2,0,-1,1,1,-1,2
32.50104379653931,0,0,0,2,1,4,1,0,2
32.515318870544434,1,-1,-1,2,1,0,1,0,2
32.5153226852417,-3,-2,1,1,0,1,2,0,2
32.52363681793213,-1,-2,-3,-3,-4,-1,-2,-1,2
32.52364182472229,-1,1,-1,-2,-2,-1,0,2,2
32.53888463973999,0,1,0,-1,0,0,3,1,2
32.53889060020447,1,0,0,7,5,2,3,0,2
32.54029679298401,-4,-4,-4,-8,-7,-5,-5,-4,2
32.54030108451843,-1,-1,-1,-2,-1,-3,0,-1,2
32.55309438705444,0,0,0,-1,-2,1,-2,-2,2
32.55309987068176,2,3,2,0,2,1,2,1,2
32.56059646606445,1,2,1,4,-1,2,1,0,2
32.56059956550598,-1,-3,-5,1,-1,-3,-3,-2,2
32.57496666908264,-1,-1,-1,-3,-3,-2,-2,2,2
32.57497000694275,-1,-1,1,1,-2,-2,-1,-4,2
32.58314299583435,1,-1,0,0,0,-1,2,0,2
32.58314609527588,0,-1,2,1,2,0,0,1,2
32.6149959564209,2,1,0,1,3,2,0,1,2
32.6150016784668,-1,-1,-1,-4,-4,-3,-5,-1,2
32.61606478691101,-3,0,-2,-1,2,0,1,0,2
32.616068840026855,0,2,1,-2,-2,-2,-2,-1,2
32.61826491355896,-1,-1,-1,-2,0,-1,0,-1,2
32.61826777458191,-2,-1,-3,-7,-7,-2,-3,1,2
32.620893478393555,1,0,0,2,0,0,0,-2,2
32.620896339416504,0,0,0,0,-1,3,1,-2,2
32.63530707359314,0,0,0,-1,-1,0,-2,0,2
32.635311126708984,-1,-1,-1,-1,1,-1,-1,-2,2
32.643502950668335,1,2,0,0,0,1,1,1,2
32.64350724220276,-1,-3,-3,-2,-1,-3,-4,-2,2
32.65866446495056,-5,-5,-5,-5,-6,-3,-5,-4,2
32.6586697101593,-1,1,-1,1,3,1,0,-1,2
32.659645080566406,1,0,1,1,0,1,0,0,2
32.659648418426514,2,4,4,8,5,5,2,0,2
32.67284822463989,-4,-4,-5,-9,-10,-9,-6,-3,2
32.67285227775574,-2,-3,-2,2,4,4,3,0,2
32.681716442108154,-4,-2,-4,-9,-7,-7,-5,-2,2
32.681721210479736,1,1,2,3,1,2,4,0,2
32.695220708847046,1,1,2,1,-1,0,1,-3,2
32.69522500038147,-2,1,0,-1,1,-3,-4,1,2
32.7033908367157,-1,-1,-1,2,2,2,1,1,2
32.70339488983154,0,0,0,-1,-2,-3,-2,-2,2
32.71860647201538,2,1,4,2,1,0,0,0,2
32.71861147880554,0,-2,-2,-1,-3,0,-3,-2,2
32.71957564353943,0,-1,-1,-1,-1,-2,2,-1,2
32.719578981399536,-2,-2,-3,-5,-2,-2,0,0,2
32.73286414146423,-1,-2,-5,-2,1,2,-1,-3,2
32.732868671417236,-1,0,1,2,-1,-2,0,1,2
32.741048097610474,-3,-4,-3,-5,-4,-4,-4,-1,2
32.74105453491211,2,1,2,-1,-1,1,1,0,2
32.75532937049866,-1,0,0,5,9,4,1,-2,2
32.75533366203308,-4,-2,-3,-4,-3,-4,-3,-1,2
32.76417589187622,-1,0,0,1,0,1,0,3,2
32.764182329177856,-2,-2,-3,-2,-2,0,0,-1,2
32.77846598625183,2,3,1,5,6,5,4,0,2
32.778470039367676,1,-1,-2,-5,-6,-3,-2,-5,2
32.77937054634094,0,-1,-1,0,-2,-2,-5,-2,2
32.77937340736389,-1,-2,-2,-3,-1,-3,-1,1,2
32.79228854179382,0,0,0,0,-3,-2,1,0,2
32.79229116439819,0,1,-1,-1,1,0,1,0,2
32.801069021224976,-1,0,3,4,2,3,2,-1,2
32.80107355117798,-1,-2,-3,-4,-7,-5,-3,-2,2
32.81567978858948,-1,0,0,0,0,0,-1,-2,2
32.81568455696106,-1,-1,-2,-2,-1,0,-2,2,2
32.82356810569763,1,-2,0,0,-1,0,2,-1,2
32.823572874069214,-4,-3,-3,-3,-2,-1,-3,-3,2
32.8385853767395,-1,0,-1,-4,-2,-1,2,1,2
32.838589668273926,2,3,5,4,3,2,3,-3,2
32.839686155319214,1,0,-1,-2,2,-1,-5,0,2
32.83968925476074,-1,-2,-2,1,-2,2,-2,1,2
32.85273265838623,0,-3,-3,-2,-3,-3,0,1,2
32.852736473083496,-1,0,-2,-1,1,1,0,-2,2
32.861451387405396,0,1,0,2,-1,-1,1,-3,2
32.86145639419556,-2,-1,0,1,-1,-1,0,-2,2
32.87531566619873,1,1,0,0,-1,-2,-1,1,2
32.875319719314575,0,-1,1,4,5,1,-1,0,2
32.883490800857544,-2,-4,-3,-6,-6,-4,-3,-2,2
32.88349461555481,-2,-3,-2,2,2,1,-2,-2,2
32.89952635765076,-1,0,1,1,-1,2,0,0,2
32.89952993392944,0,0,0,1,-2,-1,0,0,2
32.90050292015076,-2,-1,-2,0,3,1,0,-2,2
32.90050554275513,1,2,-1,0,-1,1,1,1,2
32.91264986991882,-2,-1,-1,0,-1,0,-1,-2,2
32.91265344619751,-2,-2,-2,-7,-4,-5,-5,-2,2
32.92130494117737,2,1,1,3,3,1,2,-1,2
32.92130970954895,0,-2,-4,-5,-2,-1,-1,0,2
32.93687725067139,1,-1,2,1,0,-1,0,0,2
32.93688249588013,-3,-2,-4,-4,-3,-2,-4,-3,2
32.94385743141174,-1,-2,0,-1,-5,-1,-2,-1,2
32.94386339187622,0,1,0,-1,2,-1,0,2,2
32.95818758010864,1,0,-1,-2,-2,-1,-1,-1,2
32.95819044113159,-2,0,2,3,0,1,-1,-1,2
32.958839416503906,0,3,1,-1,1,1,0,0,2
32.9588418006897,-2,-2,-1,-3,-4,-2,-1,-1,2
32.973085165023804,1,1,3,0,0,-1,0,1,2
32.973087787628174,1,1,1,1,1,-1,0,1,2
32.98055958747864,-4,-4,-5,-4,0,0,-2,-4,2
32.98056244850159,0,0,0,2,1,-1,-2,-1,2
32.99553418159485,-1,-2,-1,1,-1,0,0,-2,2
32.99553966522217,-3,-1,-2,-2,-1,-2,0,-1,2
33.00350832939148,0,2,4,4,3,0,1,2,2
33.0035126209259,1,0,-3,0,0,2,0,0,2
33.01853346824646,0,-1,-3,-2,0,-2,-3,-2,2
33.01854109764099,-1,-3,-3,-4,-6,-2,-4,-1,2
33.0262234210968,0,0,-2,-1,1,-1,1,0,2
33.02622890472412,-3,-5,-3,-5,-7,-6,-5,-2,2
33.03295087814331,0,-1,-1,-2,-1,0,-2,1,2
33.03295564651489,1,3,1,5,2,1,4,0,2
33.041096448898315,-4,-6,-8,-12,-6,-5,-6,-6,2
33.041101694107056,2,2,1,1,0,-1,1,-2,2
33.05535364151001,2,3,1,2,2,1,1,-1,2
33.055357694625854,0,-2,-3,1,3,3,0,-4,2
33.06403827667236,-1,-1,-1,-2,-1,-1,-2,-1,2
33.0640435218811,1,2,2,3,2,2,4,-1,2
33.07792282104492,-2,-2,-1,-2,-1,-1,-3,-4,2
33.077927589416504,2,-1,-1,1,-1,-1,0,1,2
33.08613967895508,1,2,2,6,1,1,1,0,2
33.08614373207092,-5,-4,-5,-7,-5,-4,-5,-3,2
33.09283518791199,1,2,1,3,2,0,4,2,2
33.09283924102783,-1,-1,0,-5,-3,-1,-2,0,2
33.10100531578064,1,0,0,1,3,0,1,-2,2
33.101009368896484,-1,-1,-2,-7,-4,-2,-4,-4,2
33.11533784866333,-1,-1,0,2,-2,-1,-2,-2,2
33.115341663360596,0,0,0,1,0,0,1,1,2
33.123526096343994,-4,-3,-4,-5,-5,-3,-1,2,2
33.123530626297,1,4,3,4,3,5,3,-2,2
33.13805389404297,-3,-1,-1,-4,-1,-2,-3,-1,2
33.13805913925171,0,-5,-2,-3,-6,-4,-3,-1,2
33.14619731903076,1,1,2,3,4,1,3,-1,2
33.146201848983765,0,-2,1,2,1,-2,0,-1,2
33.17013692855835,-2,-1,-3,-3,-1,-1,0,-1,2
33.170143127441406,1,1,0,-2,0,-1,2,-1,2
33.17103958129883,-2,-3,-2,-4,-4,-2,-3,-2,2
33.17104244232178,-2,1,1,0,-3,-3,-1,2,2
33.18479919433594,0,0,0,1,1,2,0,-3,2
33.18480849266052,-3,-2,-5,-7,-5,-4,-5,-2,2
33.18590044975281,1,0,1,3,3,3,2,1,2
33.18590426445007,-1,-1,0,6,4,1,2,0,2
33.19792699813843,-2,-2,-2,-2,-4,-4,-2,1,2
33.19793152809143,0,1,1,2,2,0,0,1,2
33.207087993621826,1,-2,-1,-1,0,1,1,-3,2
33.20709180831909,0,0,1,0,0,1,0,2,2
33.22109293937683,-1,-1,-2,0,-1,-1,-2,0,2
33.2210955619812,-1,-2,0,2,2,2,0,-1,2
33.22264266014099,1,1,2,8,7,3,4,0,2
33.222644329071045,-1,-1,-5,-9,-9,-4,-4,-2,2
33.23557901382446,0,-1,-1,-1,-4,-3,-3,-1,2
33.2355842590332,1,1,3,0,1,0,4,0,2
33.2451696395874,1,2,3,1,1,1,2,0,2
33.24517321586609,-1,-3,-3,-3,-1,-1,-4,-3,2
33.25789189338684,-2,-3,-4,-6,-3,-4,-2,0,2
33.257896184921265,-1,1,0,2,4,0,1,1,2
33.267499685287476,-3,-3,-5,-7,-8,-7,-6,-3,2
33.26750421524048,-1,0,0,2,2,1,-1,1,2
33.28324580192566,0,2,2,2,1,1,1,-4,2
33.283249378204346,1,0,1,-1,1,0,1,0,2
33.285316467285156,-1,1,-1,0,-3,0,-1,0,2
33.285319566726685,-1,0,2,1,2,2,0,1,2
33.29527735710144,-3,-3,-4,-4,-4,-6,-6,-2,2
33.29528093338013,-4,-4,-4,-5,-4,-1,-2,-1,2
33.304534673690796,-1,-2,0,0,-1,1,0,1,2
33.30453848838806,1,2,-2,0,0,1,1,0,2
33.3180890083313,0,-2,-1,1,1,3,0,3,2
33.31809425354004,-2,-2,-1,-3,-4,-2,-2,-3,2
33.32776379585266,-3,-3,-4,-6,-4,-1,-4,-1,2
33.32776880264282,1,2,4,8,2,-1,1,-1,2
33.34125208854675,-1,-2,-3,-3,2,2,1,-2,2
33.34125471115112,-2,-2,-4,-3,-3,-2,-4,0,2
33.34284567832947,1,0,0,-1,-1,0,0,-1,2
33.34284806251526,0,-1,1,0,-1,-1,1,-2,2
33.35496115684509,-1,0,-1,-1,1,0,2,2,2
33.35496425628662,0,1,-1,5,2,1,0,0,2
33.366957902908325,-2,-3,-1,-3,-1,-2,-2,-2,2
33.3669650554657,-1,-1,-1,-5,-3,-2,-2,-1,2
33.37741661071777,2,2,1,0,-1,0,1,-1,2
33.37741947174072,1,2,1,2,1,-1,2,0,2
33.387468099594116,0,1,-1,2,-1,-2,0,0,2
33.38747429847717,0,-1,-2,0,-1,1,0,-2,2
33.40179967880249,-6,-6,-6,-10,-10,-5,-8,-2,2
33.40180492401123,1,1,3,3,3,2,2,2,2
33.40443396568298,-4,-3,-4,-4,-5,-4,-3,-5,2
33.40443825721741,1,-1,0,0,0,2,0,0,2
33.41553616523743,1,1,1,4,7,2,4,-2,2
33.41554141044617,0,-1,-2,-4,-2,-2,-5,-2,2
33.424880266189575,0,-1,-1,0,-2,-3,-2,1,2
33.42488479614258,-2,-1,-3,-4,-1,-2,0,0,2
33.43809175491333,-1,-1,0,2,-1,-1,-1,1,2
33.43809652328491,-1,0,0,1,1,1,-2,0,2
33.44773578643799,-1,0,-1,-4,1,3,0,-3,2
33.447741985321045,0,-3,-3,-5,-2,-3,-4,1,2
33.46185493469238,2,2,1,2,1,1,2,0,2
33.461859703063965,-1,-1,-2,-2,-3,0,0,-3,2
33.464261293411255,0,0,0,1,0,-2,-1,-2,2
33.46426486968994,0,-2,-1,1,2,1,-1,1,2
33.47526454925537,0,1,0,2,3,1,2,1,2
33.47526812553406,-2,-1,-4,-6,-6,-4,-4,-1,2
33.485838174819946,-1,0,2,3,-1,0,0,1,2
33.48584318161011,-3,-2,-4,-3,0,-3,-2,-1,2
33.49797511100769,0,-1,0,2,0,1,1,-2,2
33.49797964096069,2,1,1,2,2,1,2,1,2
33.507346630096436,1,-2,-2,-3,-3,-1,-2,0,2
33.5073504447937,0,-3,0,2,-1,-2,-2,-1,2
33.52178740501404,0,-1,-3,-1,0,-1,0,-1,2
33.521790981292725,-2,-4,-3,-6,-4,-2,1,-1,2
33.52384424209595,1,1,2,0,2,1,0,0,2
33.523847579956055,-1,0,0,2,0,0,-1,1,2
33.53554320335388,-4,-5,-3,-7,-10,-7,-6,-5,2
33.535547494888306,-2,-1,0,0,2,0,-3,-1,2
33.5456223487854,1,2,1,1,2,2,4,4,2
33.54562759399414,1,0,-1,0,0,3,1,-2,2
33.55780220031738,1,3,3,2,1,1,2,-1,2
33.55780577659607,-4,-4,-3,-1,-3,-2,-3,-3,2
33.5675323009491,-3,-2,-2,-4,-1,-1,-3,0,2
33.56753659248352,-1,0,-2,1,1,2,-1,2,2
33.58110690116882,1,1,2,-2,0,0,-1,-1,2
33.581111431121826,1,2,0,1,1,1,2,-1,2
33.58787703514099,-2,-2,-3,3,0,-1,-3,-3,2
33.58788084983826,-3,-3,-1,1,-1,-1,-3,-2,2
33.595513105392456,0,-1,0,-2,-2,1,1,0,2
33.59551763534546,-1,-2,-1,-3,-2,-2,-3,0,2
33.60537886619568,1,0,0,0,1,2,3,2,2
33.6053831577301,2,2,3,3,2,1,1,-1,2
33.61801099777222,-4,-6,-6,-7,-10,-4,-4,-6,2
33.61801624298096,-4,-4,-3,-4,-4,-3,-2,-3,2
33.62737536430359,0,1,0,1,0,0,0,-2,2
33.62738060951233,0,1,-1,1,1,1,1,0,2
33.64110350608826,5,3,3,6,6,3,5,3,2
33.64110803604126,2,1,3,7,3,1,1,-2,2
33.64787673950195,-7,-7,-9,-15,-15,-11,-9,-4,2
33.64788103103638,-1,2,1,-1,0,1,1,0,2
33.65536332130432,-2,1,1,0,2,2,0,-1,2
33.6553680896759,2,3,-3,0,2,0,1,2,2
33.66591763496399,2,0,-1,2,2,1,-1,0,2
33.66592335700989,0,-1,2,1,-1,-3,1,-3,2
33.67790126800537,-5,-5,-6,-11,-10,-5,-6,-4,2
33.67790603637695,0,-1,1,1,0,2,1,-2,2
33.687838077545166,-1,3,0,0,0,-1,1,-2,2
33.68784308433533,3,1,0,-4,-3,-3,0,1,2
33.70046520233154,0,1,3,6,7,1,1,1,2
33.700469732284546,-2,-4,-4,-6,-8,-6,-7,-1,2
33.71913194656372,1,0,1,1,2,3,2,1,2
33.719136238098145,-1,0,1,0,0,3,1,-3,2
33.720606565475464,1,0,2,1,-1,-3,0,2,2
33.72061109542847,-2,0,-1,0,-1,2,-1,1,2
33.72471070289612,-1,-1,0,2,3,1,1,-1,2
33.724714040756226,0,-4,-2,-3,-3,1,-2,-3,2
33.7379105091095,-2,-1,-2,0,-1,0,-3,0,2
33.737914085388184,-1,-1,-1,-1,-1,-1,0,2,2
33.74730467796326,1,0,0,2,1,1,-2,0,2
33.74732518196106,1,-1,-1,0,1,1,2,1,2
33.762081146240234,1,0,1,4,1,0,-1,-5,2
33.762083292007446,-4,-6,-5,-5,-11,-7,-7,-1,2
33.76748442649841,-1,-1,0,0,1,0,1,0,2
33.76748776435852,0,-1,-2,-1,-2,-2,-1,0,2
33.775391578674316,2,3,0,1,3,2,3,2,2
33.7753963470459,2,3,0,2,6,2,3,-4,2
33.7855384349823,1,-1,-2,2,2,1,0,-2,2
33.78554391860962,-3,-5,-4,-6,-6,-5,-4,-2,2
33.79792332649231,-2,-1,0,2,-2,-2,-2,2,2
33.79792761802673,1,1,2,2,3,4,3,2,2
33.80719590187073,-3,-4,-2,-7,-7,-3,-5,-4,2
33.80719971656799,-1,1,-2,-2,-2,-2,-1,1,2
33.82045221328735,0,-1,-1,-4,-3,1,0,0,2
33.820456743240356,-1,1,1,2,3,-1,1,-1,2
33.829935789108276,2,2,2,5,2,1,2,-2,2
33.82994055747986,-1,-1,-2,0,1,1,-3,-1,2
33.83556270599365,-4,-4,-4,-7,-8,-3,-4,2,2
33.83556866645813,1,1,2,0,0,2,3,3,2
33.8438994884491,-1,-2,1,1,0,0,0,0,2
33.843902826309204,0,-1,-1,-1,-1,-2,1,-3,2
33.85777997970581,1,0,-2,0,3,1,1,-2,2
33.857783794403076,-3,-2,-1,-2,-2,0,-1,-4,2
33.868157148361206,-1,-2,0,-1,-1,-2,0,-2,2
33.868162631988525,0,0,1,0,0,-3,-1,1,2
33.88139319419861,-2,-3,-3,-4,-2,-3,-2,-2,2
33.88139867782593,-1,2,0,-1,-1,-1,0,-1,2
33.88969159126282,-2,-2,-1,0,1,2,-1,0,2
33.88969683647156,-2,-1,-1,2,0,-1,0,-2,2
33.89542031288147,5,2,2,5,3,-1,2,3,2
33.895424604415894,-4,-5,-5,-7,-5,-1,-5,-4,2
33.90487790107727,1,0,-1,-1,-2,-1,-1,1,2
33.90488243103027,-1,-1,0,1,1,0,0,-2,2
33.91826128959656,0,2,3,3,2,1,3,0,2
33.91826581954956,1,-2,-2,4,3,1,0,-2,2
33.927266120910645,-2,-2,-2,-7,-7,-3,-3,-1,2
33.927271127700806,-2,-2,-3,-3,-2,0,-2,1,2
33.94041919708252,0,2,1,1,1,1,1,-2,2
33.94042420387268,1,2,1,1,0,-1,2,0,2
33.950401306152344,-1,0,-1,0,0,-1,0,1,2
33.95040535926819,-1,-2,0,-1,-2,0,-3,-3,2
33.95534801483154,-2,-3,-2,-3,-7,-5,-2,-1,2
33.95535182952881,1,0,1,-1,0,1,-1,0,2
33.96457123756409,-3,-3,-5,1,1,0,-2,0,2
33.96457529067993,0,1,0,-2,-2,0,-1,-3,2
33.97804832458496,0,-1,-1,1,1,-1,0,2,2
33.97805190086365,-1,0,0,0,0,-2,-1,-2,2
33.995068073272705,1,1,1,2,3,2,2,0,2
33.9950737953186,0,0,-2,-1,0,-2,1,0,2
34.00035047531128,-2,-1,0,0,-1,-1,-4,-3,2
34.0003547668457,1,-1,0,-1,-3,-1,-3,0,2
34.00985074043274,-1,0,2,1,0,0,3,0,2
34.00985503196716,-3,-2,-2,-1,-2,-2,-2,-1,2
34.01537585258484,0,-1,-3,-2,-3,1,0,1,2
34.01538062095642,1,0,0,0,0,0,0,1,2
34.02455925941467,1,0,0,-3,-1,-2,-3,-2,2
34.02456283569336,1,0,0,1,-1,0,1,1,2
34.046916246414185,-2,-1,0,0,2,0,0,-4,2
34.04692077636719,-3,-3,-4,-11,-12,-8,-4,-2,2
34.0503203868866,0,-1,-1,0,-1,0,1,0,2
34.050326108932495,0,0,1,1,2,2,-1,-1,2
34.062222480773926,2,1,1,5,6,4,2,0,2
34.06222653388977,-4,-5,-3,0,0,-3,-4,-2,2
34.07191324234009,-2,-3,-4,-9,-7,-4,-3,-2,2
34.07191824913025,-2,-2,-1,0,0,-1,0,0,2
34.08448767662048,-2,-3,-2,-3,-2,-2,-1,1,2
34.084492444992065,1,2,3,7,6,3,3,-1,2
34.08660387992859,0,0,0,3,1,-3,-2,-3,2
34.08660674095154,-2,-1,-5,-7,-5,-1,-5,-6,2
34.09777498245239,-1,0,1,-3,-2,1,1,-1,2
34.09777903556824,0,-1,-2,-1,-2,0,-2,2,2
34.10832762718201,0,2,0,1,1,0,2,1,2
34.108333110809326,2,-1,1,0,3,2,1,0,2
34.12112021446228,0,-1,-2,-3,-2,-3,-3,-3,2
34.121124267578125,-1,-2,-1,0,0,-2,-1,-2,2
34.12794518470764,1,0,-1,0,0,0,1,1,2
34.12795042991638,1,-1,-2,-1,-2,-2,0,-1,2
34.14427137374878,1,0,0,-2,0,-1,0,0,2
34.14427661895752,0,0,0,-2,-1,1,1,0,2
34.14720416069031,-2,-1,1,2,-1,-2,0,0,2
34.14720964431763,-1,0,1,0,-1,-1,0,-1,2
34.15814995765686,1,-1,-2,2,4,1,1,0,2
34.1581552028656,2,2,1,3,3,4,3,2,2
34.166361808776855,-1,0,1,1,-1,-1,-2,-5,2
34.16636514663696,-1,0,0,-5,-8,-3,-1,0,2
34.18922162055969,-3,-1,0,1,2,-3,-2,-1,2
34.189226150512695,-2,-1,0,-2,-1,-2,-1,1,2
34.1924250125885,1,1,-2,-1,3,4,2,-1,2
34.19243001937866,1,1,-1,3,4,3,3,1,2
34.205047369003296,0,1,-2,-2,-6,-2,-4,-1,2
34.20505237579346,-4,-4,-5,-6,-3,-5,-4,-2,2
34.207438468933105,-1,-2,2,-1,1,1,0,2,2
34.207443714141846,0,-1,0,0,0,-2,-2,-4,2
34.218201875686646,-1,-1,-2,-1,-2,-2,-1,-2,2
34.2182080745697,-1,-1,-1,1,0,4,0,-2,2
34.2274432182312,-1,-3,-3,-3,-3,-3,-3,-1,2
34.22744822502136,0,-2,-2,1,1,1,0,-1,2
34.24120259284973,0,1,2,1,0,0,1,0,2
34.241207122802734,-1,1,-1,1,-1,-1,0,-1,2
34.24798250198364,0,1,-2,1,-1,-2,0,-2,2
34.247987270355225,-3,-2,-1,-1,0,-2,-3,1,2
34.27166748046875,-1,-1,-2,-3,-3,-1,-2,-2,2
34.27167105674744,2,0,2,-1,-1,1,1,0,2
34.273600816726685,0,2,2,4,3,2,3,2,2
34.273603677749634,0,2,1,3,0,-4,-1,-2,2
34.27789545059204,-6,-7,-7,-5,-3,-2,-6,-2,2
34.27790069580078,-2,-1,1,-1,-3,-1,3,1,2
34.28707528114319,0,0,0,-2,-1,-1,-1,-3,2
34.28707933425903,1,2,3,6,3,2,3,3,2
34.301074743270874,-2,-3,-3,-3,-3,-4,-2,0,2
34.30108022689819,1,0,-1,1,-2,-1,-1,-1,2
34.30796980857849,-1,-2,-1,-3,-1,-1,-2,2,2
34.30797553062439,0,-1,0,-1,-1,-1,0,-1,2
34.32439684867859,1,1,0,-1,0,0,-1,-1,2
34.32440161705017,1,-1,-1,-2,-2,-2,-2,-2,2
34.32737064361572,1,1,-1,0,-2,-1,2,1,2
34.327375173568726,-5,-4,-3,-3,-4,-4,-2,-2,2
34.33798933029175,0,-1,-2,-3,-3,-2,-1,-1,2
34.33799409866333,-2,-2,-1,-2,1,-1,1,-3,2
34.34780240058899,0,-3,-1,-3,-6,-3,-4,-3,2
34.34780788421631,1,-1,0,0,2,0,-2,2,2
34.36126255989075,3,5,6,8,3,4,5,0,2
34.361268043518066,-7,-9,-10,-14,-13,-11,-11,-4,2
34.36884427070618,-1,-1,0,1,-1,-1,0,-1,2
34.368847608566284,-1,-1,-1,-2,0,1,0,-1,2
34.38408398628235,0,0,3,2,1,0,1,1,2
34.384087324142456,2,3,3,3,6,4,2,0,2
34.38545060157776,-2,-1,-3,-3,-4,-2,-2,-2,2
34.385454177856445,-3,-3,-4,-4,-5,-3,-2,1,2
34.39730930328369,0,0,0,-3,-1,-3,-2,-1,2
34.39731216430664,-3,0,-3,2,-1,-1,-4,-3,2
34.40751385688782,-1,-1,-1,-2,-2,-3,0,0,2
34.40751886367798,0,2,1,3,4,2,1,-2,2
34.42146825790405,1,-1,-1,-4,-4,-2,1,0,2
34.42147445678711,-2,-2,-2,-1,-4,-4,-3,-3,2
34.427923917770386,0,-2,1,0,1,2,-1,0,2
34.42792844772339,-1,-3,-1,-1,0,0,-1,-3,2
34.444368839263916,-2,-2,-3,1,1,0,0,0,2
34.44437384605408,5,2,2,4,1,2,2,2,2
34.446420192718506,-2,-3,-2,0,2,0,1,0,2
34.44642353057861,0,-1,-2,-3,-4,-2,-1,1,2
34.45789408683777,-1,0,-2,1,0,-1,0,-6,2
34.45789813995361,0,-2,-1,0,-1,-1,0,0,2
34.46733617782593,0,1,0,1,0,-2,-2,-2,2
34.46734428405762,-2,0,-1,-1,-4,-2,-1,-1,2
34.48116207122803,-1,-1,-3,-2,-4,-1,0,-1,2
34.48116755485535,0,2,2,1,3,3,2,0,2
34.490716218948364,1,0,2,4,3,2,2,1,2
34.490721702575684,-1,-3,-4,-8,-6,-6,-6,-4,2
34.504425048828125,-1,-3,-3,-4,-5,-2,-3,0,2
34.50442957878113,-1,-1,1,2,3,3,2,-2,2
34.50699496269226,-3,-1,-3,-4,-4,-2,-3,-3,2
34.50700044631958,0,2,2,5,5,2,2,0,2
34.5179340839386,-1,-1,-1,1,-1,-2,-1,-2,2
34.51793932914734,0,-1,-1,-1,0,1,-2,3,2
34.52725052833557,-1,-3,-4,-4,-4,-2,-2,-3,2
34.527254819869995,2,-1,-2,0,-2,-1,0,-2,2
34.54837441444397,-1,0,-1,-2,-1,-2,-1,-3,2
34.548378705978394,1,2,1,4,3,-1,1,3,2
34.55740237236023,0,0,1,0,1,1,-1,-2,2
34.55740737915039,0,-2,-1,-1,0,-1,0,-3,2
34.564300537109375,-1,-1,-2,-4,-2,0,-2,-2,2
34.564305543899536,2,0,0,-4,-4,-3,1,0,2
34.566664695739746,-4,-3,-4,-6,-7,-2,-6,-1,2
34.56666827201843,3,1,0,1,2,2,3,4,2
34.57832074165344,1,0,0,3,3,0,-1,0,2
34.5783269405365,-1,0,-2,-5,-3,-2,-3,-1,2
34.5873498916626,0,2,-1,0,2,-1,0,0,2
34.5873544216156,0,0,1,2,0,0,1,-1,2
34.600451946258545,-2,-4,-3,-3,-4,-2,-3,-2,2
34.60045838356018,1,-1,-1,1,2,2,-1,-2,2
34.61007785797119,0,-2,-3,0,-1,-2,-1,0,2
34.610081911087036,-1,-1,0,0,-3,-2,-1,0,2
34.62460136413574,-2,-1,-1,-1,0,0,2,2,2
34.6246075630188,0,0,0,2,-1,0,2,-1,2
34.627065658569336,-1,-1,-1,-1,-1,-1,-1,0,2
34.62707161903381,0,1,-1,-1,0,-1,-1,2,2
34.6381254196167,0,-2,0,-2,-1,-1,-1,-2,2
34.63813042640686,-2,-3,-1,-2,-2,0,-1,0,2
34.64631533622742,-1,0,0,0,1,0,1,-2,2
34.646318197250366,-2,1,-3,-4,-5,-1,-3,-3,2
34.66072416305542,-2,0,-1,-1,0,2,0,0,2
34.66072988510132,-1,0,0,-2,-2,-1,2,-1,2
34.67061257362366,2,1,0,2,4,2,3,0,2
34.67061710357666,0,1,1,1,-2,0,-2,-4,2
34.68457889556885,-1,-2,-4,-8,-7,-3,-5,0,2
34.68458414077759,-1,-1,-1,1,0,0,2,-1,2
34.68691372871399,1,0,0,0,-1,-1,1,1,2
34.686917781829834,1,-1,1,2,3,2,4,2,2
