time,channel1,channel2,channel3,channel4,channel5,channel6,channel7,channel8,position
24.816083908081055,-18,-32,-12,-8,-4,-2,5,-23,1
24.81609058380127,0,1,0,0,-1,-3,-6,4,1
24.8300883769989,-1,7,2,-2,-1,-4,-7,-9,1
24.830094575881958,-4,-29,-8,1,0,-1,-6,-18,1
24.836716651916504,7,10,3,4,3,0,-1,5,1
24.836721897125244,1,49,12,3,0,-2,-12,-16,1
24.853434085845947,-4,-7,-2,1,-1,-4,-2,-7,1
24.853440046310425,-6,-4,-5,-7,-2,3,9,7,1
24.85620927810669,-9,-15,-11,-8,-3,7,9,-2,1
24.85621404647827,-2,-23,-11,-8,-6,1,2,5,1
24.86006498336792,5,8,7,8,5,-2,3,19,1
24.860068321228027,4,6,8,5,6,-1,0,1,1
24.861730813980103,-1,0,-1,0,1,0,3,2,1
24.861734628677368,-1,-10,-7,-6,-2,-2,-4,1,1
24.87509775161743,4,-4,-7,-8,-7,1,-14,-5,1
24.875104188919067,-13,9,8,6,3,-6,8,-39,1
24.88396716117859,5,19,10,6,7,4,6,24,1
24.883973836898804,-5,-15,-3,1,2,0,-3,-11,1
24.913214921951294,-11,-7,-8,-10,-8,-6,-17,-9,1
24.91322159767151,4,-3,-3,-5,-3,4,15,17,1
24.91582727432251,2,3,-1,-3,-3,1,1,-6,1
24.91583251953125,-4,1,4,7,3,-3,-2,-4,1
24.93558645248413,1,-8,-6,-2,1,5,18,5,1
24.93559217453003,-5,15,10,10,5,-2,-28,11,1
24.937814474105835,0,-12,-7,-8,-3,1,9,3,1
24.937819004058838,1,-10,-2,-2,-1,1,-4,3,1
24.949803590774536,2,-2,0,1,1,4,17,6,1
24.94980812072754,5,-4,-2,0,1,6,12,1,1
24.95654273033142,2,28,17,13,4,-11,-45,-19,1
24.956547260284424,-4,-9,-3,-5,-2,0,4,10,1
24.98102355003357,8,13,-1,-2,-3,-6,-8,-18,1
24.98102855682373,11,-1,-1,-1,-2,2,8,4,1
24.983978986740112,-11,-13,-7,-5,-5,8,11,-6,1
24.983983278274536,4,8,5,6,3,-3,11,7,1
25.004493713378906,-11,-5,1,-1,-1,-1,-11,-11,1
25.004501819610596,4,-5,-9,-10,-5,1,-1,6,1
25.009706258773804,-4,-11,-7,-5,-3,-1,3,7,1
25.009713411331177,2,16,6,3,0,2,4,12,1
25.02553653717041,0,-7,-4,1,5,3,16,10,1
25.025542736053467,3,9,5,0,-3,-13,-21,-3,1
25.027746200561523,1,-11,-4,-3,-4,-4,1,0,1
25.027750968933105,-9,-26,-11,-9,-5,-1,-2,-4,1
25.046723127365112,5,24,16,13,8,-1,-24,-31,1
25.046728134155273,-16,-12,-10,-7,-7,0,-3,-45,1
25.056458711624146,-3,-4,-2,0,3,-2,7,9,1
25.056464672088623,0,-5,-1,0,-1,-1,-7,3,1
25.078758716583252,-5,3,2,-3,-6,-8,-9,-10,1
25.078765630722046,6,1,-1,2,2,4,6,7,1
25.080780506134033,-2,-6,-1,-4,-5,-5,-7,-14,1
25.08078384399414,0,2,0,0,1,-5,-11,-9,1
25.10017228126526,-8,-12,-6,-4,-1,-4,1,0,1
25.100178480148315,0,1,0,1,0,-1,3,13,1
25.10670256614685,4,-13,-4,-1,-2,3,8,12,1
25.106708526611328,3,26,4,0,-1,-4,-20,-1,1
25.130594491958618,-2,-2,0,-1,-2,-4,-3,-1,1
25.13059949874878,3,-5,1,-1,2,3,5,16,1
25.13363742828369,6,14,5,2,1,-2,-5,5,1
25.133642435073853,1,-14,-4,-4,-3,-2,-2,-12,1
25.153516054153442,1,6,2,3,1,4,11,12,1
25.153525829315186,0,4,0,0,1,0,6,-2,1
25.156564474105835,-4,-13,-7,-3,-4,-2,5,-16,1
25.156569004058838,3,9,1,-1,-1,-4,6,-3,1
25.182698249816895,-4,-16,-4,-1,-1,0,-16,-11,1
25.182702779769897,0,0,0,-4,0,1,4,12,1
25.189012050628662,2,4,-1,1,1,0,0,1,1
25.189017295837402,-4,-4,-4,-3,-3,-4,-2,-10,1
25.206299304962158,-1,-6,-4,-2,0,1,6,-4,1
25.2063045501709,2,5,2,1,-1,-2,-5,6,1
25.208543062210083,2,0,-1,-4,-4,-2,-9,-1,1
25.208544731140137,0,-3,0,3,4,5,8,1,1
25.228609561920166,1,-8,-6,-8,-8,3,6,14,1
25.228615760803223,-2,16,6,3,0,0,4,-5,1
25.233860969543457,-1,11,8,8,4,-21,-39,-15,1
25.23386788368225,3,-3,-2,-2,1,8,20,20,1
25.25070357322693,2,1,2,-1,-1,-3,3,5,1
25.250709056854248,-5,-11,-4,-4,0,7,10,1,1
25.25300407409668,-1,-2,0,3,2,3,12,0,1
25.253008604049683,-4,-5,-2,-3,-4,-3,-5,-11,1
25.27169895172119,0,5,-2,-3,-2,-2,-11,-7,1
25.27170419692993,0,-5,-1,-1,-2,-1,0,6,1
25.288580894470215,2,5,0,0,1,1,11,10,1
25.288585662841797,-9,-8,-1,4,4,-2,-14,-11,1
25.303040742874146,-8,-11,-5,-6,-2,-1,7,1,1
25.303046464920044,10,16,5,1,-1,0,7,3,1
25.305214643478394,-5,-9,-1,-3,-4,0,2,-7,1
25.30521845817566,5,5,0,-2,0,-1,3,5,1
25.325840711593628,-4,4,3,-1,-1,-5,-2,2,1
25.325843572616577,-3,-6,-3,-3,-1,-1,0,1,1
25.328125,-4,-18,-10,-4,-3,4,13,-2,1
25.328128337860107,4,11,5,2,-1,-3,-6,13,1
25.346638917922974,-2,-5,-5,-4,0,3,5,-6,1
25.346641540527344,2,2,1,0,-1,-7,-11,5,1
25.35506844520569,1,3,-4,-4,-3,6,10,6,1
25.35507082939148,-7,-14,-2,-3,-4,-5,-9,-10,1
25.378381967544556,6,16,5,10,7,6,12,12,1
25.37838840484619,2,-4,-3,-1,-2,-4,-10,-14,1
25.38102698326111,2,18,4,2,2,1,-5,-3,1
25.38103222846985,0,-3,-2,1,2,0,4,2,1
25.400182008743286,0,-1,-1,-3,-3,-2,-4,0,1
25.400184869766235,1,-3,-3,-1,0,-3,-2,0,1
25.406201601028442,-1,-3,-1,1,-1,1,2,-5,1
25.40620446205139,1,4,1,1,-1,1,4,0,1
25.430681467056274,-4,-14,-12,-9,-7,-5,-17,-23,1
25.43069863319397,-5,-4,2,-1,-1,5,4,9,1
25.438324213027954,-2,2,-1,0,-2,-6,-16,-20,1
25.438328742980957,-1,9,6,5,3,6,7,6,1
25.45365571975708,1,-4,-3,1,0,0,8,-2,1
25.453662395477295,-2,1,-1,-2,-1,-6,-8,-7,1
25.456201791763306,-3,-1,-2,-4,-3,1,7,8,1
25.45620584487915,2,-4,-3,-2,0,-2,-4,-3,1
25.46075677871704,-1,1,2,3,-1,-1,-2,3,1
25.460761308670044,1,9,-1,2,0,0,0,-5,1
25.462841033935547,5,1,4,1,3,3,8,19,1
25.46284508705139,-8,-12,-6,-4,-2,-3,-5,-6,1
25.46738862991333,2,4,4,2,2,0,-3,-9,1
25.467395782470703,2,4,1,0,4,2,3,6,1
25.468445777893066,-7,-7,-3,-1,-2,-5,-5,-5,1
25.46845030784607,3,8,-3,-3,-4,1,2,-6,1
25.47493076324463,-4,-6,0,1,0,-1,-2,5,1
25.47493600845337,-4,-9,-3,-4,-2,-3,-10,-13,1
25.476000547409058,4,12,7,5,4,3,0,3,1
25.476004600524902,2,-14,-9,-9,-6,-7,-16,-14,1
25.48306918144226,10,29,11,8,5,2,8,12,1
25.483073711395264,-5,-14,-3,3,2,1,4,0,1
25.485419273376465,1,-3,-6,-8,-5,0,3,2,1
25.485424757003784,0,-2,4,5,5,7,2,-9,1
25.489900588989258,-1,-7,-2,-1,-1,-1,-2,2,1
25.489907264709473,3,1,2,0,-1,-6,-8,0,1
25.490862131118774,-3,1,-2,-2,1,3,2,3,1
25.490866661071777,-1,1,-2,-4,-4,-3,-1,-1,1
25.498039960861206,0,-4,-3,-1,0,0,0,-7,1
25.498044729232788,3,6,-1,-3,-3,2,1,10,1
25.499247789382935,4,4,5,6,4,-1,9,17,1
25.49925446510315,-5,-4,0,-2,-2,-2,-3,0,1
25.505481719970703,0,4,2,2,-1,-1,1,-6,1
25.505486488342285,2,10,0,-1,-2,-1,-1,-5,1
25.50765371322632,-2,-10,-4,-4,-4,-3,-8,-7,1
25.507656812667847,0,12,7,7,5,-1,1,11,1
25.51173734664917,-5,-5,-5,-8,-3,-2,-8,-1,1
25.511740684509277,3,-8,-6,-2,-1,4,10,1,1
25.512455940246582,-4,-2,-1,-2,-1,1,-5,-6,1
25.512457370758057,5,-3,0,0,-2,-5,-1,2,1
25.520190477371216,-7,-8,-4,-1,-1,-1,1,8,1
25.520196676254272,-5,4,3,4,4,1,-4,-4,1
25.52675199508667,2,3,0,-3,-3,-2,-1,-2,1
25.526756525039673,2,-5,-2,-2,-2,-2,-1,5,1
25.542017221450806,0,0,-1,-3,-3,-2,2,0,1
25.54202175140381,-1,-7,-2,1,1,6,14,9,1
25.552154064178467,1,13,6,5,2,-3,-24,-7,1
25.552159309387207,-1,-1,-4,-4,-5,-4,1,0,1
25.556544303894043,0,-3,-3,-2,-1,0,-3,-1,1
25.55654811859131,-1,-1,-1,-2,-1,-6,-10,4,1
25.567009449005127,0,-5,-1,1,1,-1,1,-2,1
25.567020416259766,-2,1,-5,-6,-3,1,-4,-5,1
25.579894304275513,2,7,3,1,1,-2,-4,1,1
25.579899072647095,-5,-16,-3,-4,-3,-1,7,2,1
25.58656334877014,1,-3,-2,1,0,-3,4,2,1
25.586567640304565,1,6,1,-1,1,2,-1,1,1
25.60289716720581,-4,-5,-1,2,4,2,7,0,1
25.602900981903076,-1,-5,-2,-3,-6,-1,-5,-4,1
25.60498833656311,-1,-3,-2,0,2,3,8,-4,1
25.60499143600464,7,10,4,4,-2,-5,-7,10,1
25.625538110733032,7,11,3,2,2,2,9,7,1
25.625542402267456,-1,-7,-3,-4,-5,-9,-17,-10,1
25.627639770507812,-1,0,0,-1,-2,5,4,4,1
25.627657413482666,2,1,1,-1,1,0,2,-5,1
25.64009690284729,-2,-4,-1,-2,-2,-2,-8,-7,1
25.640103101730347,-3,0,0,-1,0,2,5,1,1
25.646628618240356,-2,-5,-5,-5,-5,-3,-7,-8,1
25.64663290977478,-3,-3,0,1,2,-1,3,-4,1
25.662927627563477,3,1,-2,0,-2,1,1,1,1
25.66293215751648,0,3,7,3,4,3,3,4,1
25.66487455368042,1,-6,-4,-4,-3,-2,0,-2,1
25.664878606796265,5,-3,0,1,2,3,8,5,1
25.676626920700073,-3,2,-1,-4,-7,-1,-3,0,1
25.676631212234497,1,1,1,3,3,3,1,-5,1
25.68784236907959,-3,-9,-4,-2,-2,-1,-2,-5,1
25.687847137451172,6,6,1,1,2,3,0,7,1
25.699912071228027,0,-5,-1,0,0,-3,-2,3,1
25.69991683959961,2,3,-2,-3,-5,-3,-4,-4,1
25.7068030834198,-6,-11,-3,-4,-1,1,2,10,1
25.7068088054657,-1,6,3,3,1,-5,-12,-16,1
25.72330069541931,-3,-1,-1,-3,-3,-5,-12,-7,1
25.723305702209473,-2,-3,-1,-2,0,1,6,-3,1
25.72536540031433,3,4,1,1,3,3,2,-6,1
25.725369215011597,-1,-9,-8,-3,-2,6,5,5,1
25.7454514503479,-7,6,0,2,-4,-12,-5,-24,1
25.745455741882324,-6,-5,0,0,1,3,6,7,1
25.747352123260498,3,0,-2,0,2,-2,6,0,1
25.747355461120605,-8,0,2,0,-1,0,4,1,1
25.760239601135254,-4,-18,-6,-6,-3,0,1,-5,1
25.760244846343994,5,11,0,-1,-1,-2,-4,1,1
25.766656398773193,-2,4,-1,-3,-3,-1,-2,-1,1
25.766661405563354,-5,-13,-6,-3,-2,0,4,1,1
25.782962560653687,4,4,6,7,4,1,-2,3,1
25.782967567443848,-4,-5,-8,-10,-5,-5,-11,-12,1
25.785061359405518,1,3,4,2,0,2,1,3,1
25.785064935684204,-1,-4,-1,1,0,1,-3,-5,1
25.79661273956299,6,4,4,5,3,2,1,15,1
25.79661726951599,6,-3,3,7,5,0,-4,3,1
25.805925369262695,-7,17,-2,-12,-14,-8,-11,-19,1
25.80592942237854,-4,-6,-2,-3,-2,0,1,-1,1
25.820245265960693,-2,-1,-1,1,3,4,3,-2,1
25.820250511169434,2,-10,-2,2,2,3,-1,1,1
25.82651424407959,3,-1,-4,-3,0,-2,6,7,1
25.826517820358276,2,2,-3,-3,-3,-2,0,-5,1
25.842313766479492,-2,-6,-1,-1,1,2,6,6,1
25.842318773269653,-3,5,0,0,0,1,-7,-6,1
25.850347995758057,-2,-4,1,2,0,-5,-5,-4,1
25.850351095199585,0,1,0,-1,-1,-3,-3,-7,1
25.86559247970581,1,-7,-2,-3,-4,-1,1,-2,1
25.86559796333313,-4,-6,-3,-3,-5,-2,4,5,1
25.868109703063965,7,3,2,5,2,-1,-4,-6,1
25.868117570877075,-12,-7,-1,0,2,0,-6,-8,1
25.88109803199768,1,4,-1,0,-1,0,-4,-2,1
25.881102323532104,-1,4,-1,-1,1,0,3,-2,1
25.88886833190918,-6,-24,-8,-4,-4,-1,9,-14,1
25.8888738155365,2,6,4,1,1,-2,-6,1,1
25.903422594070435,3,2,0,0,0,1,5,-2,1
25.903427362442017,2,7,1,1,0,-4,-2,2,1
25.905475616455078,-6,-11,-5,-5,-2,5,2,1,1
25.905478954315186,5,5,1,3,3,-1,2,5,1
25.916964530944824,-2,-4,-7,-8,-7,-3,-6,-6,1
25.916970252990723,0,-5,0,-1,-3,-2,1,-2,1
25.926230669021606,-3,12,4,5,3,-2,0,-3,1
25.926235675811768,-4,-3,2,-1,-5,-2,-5,-8,1
25.939855575561523,-5,-3,1,1,0,-1,-3,-2,1
25.939860343933105,-1,0,-3,-3,-2,-3,1,-1,1
25.946685552597046,-1,-10,0,2,3,2,1,8,1
25.946691036224365,3,4,-1,-3,-3,-4,-1,4,1
25.961862325668335,-4,-1,2,0,0,3,-1,1,1
25.961865186691284,-2,-5,-4,-1,0,0,11,-8,1
25.969233989715576,-2,-1,1,2,-1,-3,-7,-6,1
25.969239473342896,-4,-6,-5,-4,-4,1,3,4,1
25.97673273086548,2,2,2,4,6,-2,-1,-1,1
25.976737022399902,6,5,-2,-6,-8,-3,-3,-6,1
25.986148834228516,4,8,3,1,1,1,0,9,1
25.986155033111572,-1,-2,-2,0,-1,0,2,-2,1
26.00027322769165,0,1,1,0,0,2,0,-3,1
26.000280141830444,-2,-4,0,1,1,-1,-6,-4,1
26.00659489631653,7,1,-1,1,3,0,3,-1,1
26.006599187850952,3,5,0,-3,-4,-2,0,3,1
26.02236819267273,2,3,0,0,-1,2,1,5,1
26.022372722625732,-3,-2,3,4,3,1,2,5,1
26.02907681465149,6,5,-1,0,1,-3,-9,-1,1
26.029081106185913,-11,-9,-5,-2,-1,3,4,2,1
26.03784680366516,-5,-4,-4,-2,-1,-2,-9,-2,1
26.037850379943848,3,10,2,-1,-1,-4,2,13,1
26.046433210372925,2,-4,3,2,0,3,-9,1,1
26.04643750190735,1,0,-3,-2,-2,-4,-3,-9,1
26.05986452102661,-2,-1,-4,-4,-4,-1,6,4,1
26.059869050979614,-1,-3,-1,1,1,2,-3,-7,1
26.067896842956543,-1,3,1,-2,0,0,-1,1,1
26.06790518760681,4,-2,-1,1,1,2,5,0,1
26.082653045654297,1,1,2,1,0,-2,0,-1,1
26.082658767700195,-6,-10,-6,-4,-5,-4,0,-4,1
26.089268684387207,0,11,4,2,3,0,8,14,1
26.089274168014526,0,-1,1,2,1,-1,-3,-2,1
26.105536937713623,-3,-4,-4,-2,-2,1,5,-2,1
26.105542182922363,-2,-1,-1,-2,0,2,-10,-11,1
26.107821702957153,0,2,-2,-3,-4,-2,-1,3,1
26.107826948165894,-5,-2,-2,-2,-1,-2,-9,-7,1
26.119362592697144,4,-2,0,0,4,3,-3,-4,1
26.119365692138672,9,13,5,4,2,-2,11,14,1
26.12672996520996,-1,-7,-4,-5,-4,2,4,0,1
26.126734733581543,1,-2,0,1,1,-4,-13,-1,1
26.142430543899536,3,3,-2,-2,-2,-2,2,1,1
26.142435312271118,2,3,0,0,1,0,-3,-3,1
26.14917230606079,-1,-3,-2,-2,-3,-4,-3,-5,1
26.149177074432373,1,0,3,6,4,2,8,10,1
26.165462255477905,-5,-8,-6,-9,-6,-2,-2,-9,1
26.165467500686646,1,-2,-1,1,-1,3,-10,-2,1
26.16766667366028,1,3,-1,-1,0,2,6,15,1
26.167670726776123,0,-3,0,-1,0,0,1,0,1
26.18072748184204,5,-2,0,0,-1,-1,-4,-1,1
26.18073320388794,5,13,6,5,4,4,6,3,1
26.186731576919556,-3,-6,-3,-3,-4,-3,-6,-13,1
26.186736345291138,2,4,-4,-6,-4,-2,-4,-7,1
26.201817989349365,-1,0,3,3,0,-7,-13,5,1
26.201820611953735,-7,-7,-2,-1,-2,-4,-1,-2,1
26.20913028717041,0,-6,-2,-2,-3,-1,-2,-2,1
26.209134817123413,0,4,0,0,-1,-2,0,-1,1
26.225440979003906,-4,-6,-1,-2,0,-1,2,-3,1
26.22544527053833,-4,-3,-2,-5,-5,-4,-4,-3,1
26.22737765312195,1,4,0,3,0,0,0,-3,1
26.227381229400635,-4,-1,0,2,1,2,-1,-10,1
26.239856243133545,4,4,3,4,2,-1,-3,-1,1
26.239861726760864,-4,-7,-4,-1,2,3,3,-5,1
26.246575117111206,-4,-4,-4,-7,-4,-3,-3,-4,1
26.246580123901367,4,-2,0,1,0,1,4,0,1
26.262404203414917,3,7,-2,-1,-1,1,4,4,1
26.262410879135132,0,-3,1,1,2,-1,-2,11,1
26.269141912460327,2,4,2,1,2,-3,-3,-6,1
26.269145965576172,-2,-16,-6,-3,0,0,3,-4,1
26.28494930267334,1,9,1,-1,-3,0,0,-2,1
26.284952402114868,-8,-6,-6,-3,-2,1,5,-10,1
26.287762880325317,2,3,0,2,0,-4,-10,4,1
26.287768125534058,-4,-3,-3,-2,-4,-4,-7,-7,1
26.29993224143982,-8,-7,-2,0,0,-1,6,-2,1
26.299936771392822,2,4,-1,-3,-2,2,2,-1,1
26.30670428276062,-3,-5,-1,1,-1,0,1,-4,1
26.30670976638794,-1,-4,-1,-2,0,-1,-3,1,1
26.322031021118164,8,18,5,5,3,4,12,13,1
26.322034120559692,0,-3,1,0,-3,-4,-4,-3,1
26.328783988952637,1,2,4,1,3,2,-3,-2,1
26.32878804206848,-3,-8,-9,-8,-8,-3,2,-3,1
26.345088958740234,4,1,3,0,0,-2,-4,-4,1
26.345092058181763,-2,-5,-3,1,2,2,2,-4,1
26.346668243408203,2,-6,-2,0,-1,1,3,-1,1
26.34667134284973,7,15,4,-1,-2,-1,-4,-1,1
26.3598575592041,-6,-7,-3,0,-2,-1,-5,-5,1
26.359862089157104,5,0,0,1,-2,-5,-6,-9,1
26.367037057876587,-3,-3,-5,-3,-2,0,2,2,1
26.367042779922485,6,6,7,6,6,7,10,19,1
26.382598876953125,-7,-8,-2,-3,-6,-8,-10,-27,1
26.382604360580444,2,7,1,0,-1,0,1,10,1
26.389548301696777,-4,-10,-7,-8,-6,-4,-8,-5,1
26.389554262161255,1,1,1,1,0,-2,2,4,1
26.405556678771973,4,-1,-2,0,3,4,2,1,1
26.40556263923645,-5,-9,-5,-4,-3,-1,-6,-8,1
26.407578229904175,-8,-8,-4,-4,-3,-4,-3,-14,1
26.407583236694336,-2,2,2,4,2,2,5,5,1
26.41986632347107,-2,-5,-4,-4,-4,-4,-3,3,1
26.419870853424072,-3,-4,-5,-3,-4,-5,-7,-9,1
26.426637649536133,-5,-5,1,2,2,0,6,-4,1
26.426642179489136,-2,-9,-5,-3,-4,-4,-5,-7,1
26.442813396453857,2,-1,1,1,2,4,2,6,1
26.442819595336914,2,1,1,-1,-2,-1,-2,8,1
26.456562519073486,9,4,0,3,-1,-2,1,0,1
26.45656657218933,-4,7,-1,-4,-1,-2,-5,-7,1
26.465373754501343,-4,-9,-6,-8,-4,0,-2,2,1
26.46537709236145,-1,-2,-1,-2,0,0,0,-3,1
26.469038009643555,6,10,3,2,2,5,3,2,1
26.469763040542603,2,-1,0,1,-2,-1,0,-1,1
26.479899644851685,1,-1,-4,0,1,1,-1,-2,1
26.47990584373474,-2,-4,-2,-3,-2,-1,-1,1,1
26.48694348335266,-3,-11,1,1,1,2,3,9,1
26.486949682235718,7,27,9,5,6,1,4,6,1
26.51049280166626,-2,2,6,5,2,1,4,5,1
26.51049780845642,3,5,3,6,4,6,7,3,1
26.512582778930664,0,-2,-4,-5,-4,-2,-4,-2,1
26.512588262557983,0,-6,-2,-1,-3,0,0,-4,1
26.525590419769287,-1,-10,-2,0,1,-1,2,2,1
26.525595664978027,6,16,6,4,3,0,-1,0,1
26.527729272842407,0,2,-2,-1,0,-1,-1,-1,1
26.527733325958252,-6,-9,-2,-1,-1,0,1,-2,1
26.5402615070343,4,9,2,0,-1,-5,-7,-2,1
26.54026746749878,0,-3,-3,-2,-3,-4,-2,10,1
26.548216581344604,-3,-6,-1,-1,3,4,5,2,1
26.54822301864624,7,6,2,0,0,-2,-7,1,1
26.570088624954224,-2,3,-1,-2,0,1,-3,-2,1
26.57009530067444,-1,-7,-1,-1,0,0,0,0,1
26.57843804359436,2,5,3,1,0,-1,1,4,1
26.578442811965942,-4,-10,-4,-1,1,1,-3,-6,1
26.585925340652466,4,-4,-2,-1,1,4,9,4,1
26.585933685302734,1,10,2,-3,-2,-2,-2,-2,1
26.58832097053528,0,4,0,-2,-1,-2,-4,-3,1
26.58832573890686,-1,-9,-2,-2,-1,0,4,-2,1
26.598753929138184,-3,-3,-2,-2,0,-1,-4,-7,1
26.598758697509766,-3,-23,-6,-2,-3,-1,-1,-10,1
26.616148710250854,0,18,4,2,0,0,-5,2,1
26.616153717041016,-4,-5,-2,-3,-5,-3,-1,-1,1
26.622400522232056,-1,1,-1,-4,-4,-1,0,-1,1
26.622405529022217,-1,-3,-1,-3,-2,-3,-3,-4,1
26.629786729812622,-4,-3,-1,-1,-2,0,3,-5,1
26.62979245185852,2,2,-4,-2,-2,-4,-7,-15,1
26.645529985427856,-5,-7,-2,-3,-3,-3,-12,-2,1
26.645534992218018,0,8,-1,-3,-5,-2,-3,-10,1
26.647565364837646,-1,-5,-4,-4,-2,0,-2,-4,1
26.647568464279175,0,0,0,1,4,2,4,5,1
26.65918207168579,-7,-7,-3,-2,-1,0,1,-3,1
26.659186601638794,11,3,2,2,3,3,6,13,1
26.685658931732178,6,11,3,0,0,0,1,-4,1
26.685665607452393,5,-3,0,-1,0,0,-7,13,1
26.68711018562317,2,6,4,1,-1,-5,-3,1,1
26.687115907669067,-10,-10,-5,-3,-2,0,0,-10,1
26.689486980438232,3,-4,1,2,3,2,0,-3,1
26.689491987228394,-1,-7,-3,-2,-1,3,5,4,1
26.706098794937134,-4,0,-1,0,-1,-4,-5,-13,1
26.70610737800598,0,3,1,2,4,1,1,1,1
26.708088397979736,-3,-5,-2,0,-1,-2,0,2,1
26.70809268951416,-2,4,0,-1,-4,-5,-5,-5,1
26.719175577163696,1,-8,-4,-3,-1,3,6,7,1
26.71918296813965,1,7,5,4,2,1,2,-7,1
26.736700534820557,-7,-9,-9,-11,-10,-7,-5,-8,1
26.736709117889404,-3,0,1,1,1,2,-3,4,1
26.7423677444458,1,-2,0,2,1,-1,3,6,1
26.742372512817383,-2,-3,-1,0,-1,0,-2,-5,1
26.74929904937744,1,13,4,3,0,-3,-10,-3,1
26.749304056167603,0,1,-1,-4,-2,-1,0,-4,1
26.765997886657715,-4,-3,-2,-1,-2,-2,0,-9,1
26.76600408554077,-2,-2,-2,-3,-2,0,-4,-5,1
26.770197868347168,2,-11,-1,1,1,1,7,8,1
26.770205974578857,-7,-3,-6,-8,-6,0,-1,-3,1
26.779178619384766,7,10,3,2,1,2,0,2,1
26.779184341430664,1,1,0,-1,-1,-2,-1,-6,1
26.78926992416382,-3,-6,1,3,4,2,2,7,1
26.7892746925354,-5,-11,-6,-5,-4,0,-2,-3,1
26.802370309829712,4,-3,-1,0,-1,-1,4,9,1
26.802377462387085,0,3,3,0,1,-1,-5,0,1
26.8090660572052,3,1,1,0,0,-1,1,1,1
26.809070587158203,-1,-1,-1,1,-1,-3,-4,-1,1
26.825480699539185,0,-7,-1,1,3,3,0,-3,1
26.82548499107361,4,14,1,-3,-4,-1,4,15,1
26.82856822013855,-5,-1,-3,-4,-5,-5,-6,-7,1
26.828572034835815,0,-1,3,2,4,1,3,-1,1
26.839109182357788,6,-2,-1,1,1,-1,-2,-5,1
26.839113473892212,-11,-12,-8,-12,-9,-3,-5,-8,1
26.85402774810791,3,-13,-4,-1,1,2,1,-6,1
26.854031801223755,9,31,10,7,3,2,5,12,1
26.862634658813477,-5,-3,0,1,1,-2,-2,-3,1
26.86263918876648,1,1,-2,1,2,-1,-2,0,1
26.869194507598877,-4,-2,-3,-1,-2,0,1,0,1
26.86919927597046,-2,-8,-3,-1,-1,-3,-2,-6,1
26.884814977645874,0,0,-1,5,2,-1,-3,4,1
26.884819746017456,6,19,-1,-8,-6,-3,5,-13,1
26.89167094230652,0,1,-1,-3,-1,-2,-16,-8,1
26.8916757106781,1,-2,3,3,3,2,6,4,1
26.89918351173401,-6,-10,-5,-6,-4,-1,-1,3,1
26.89918804168701,4,18,5,5,-1,-2,-6,16,1
26.908889770507812,0,-1,0,2,0,-2,4,1,1
26.908893823623657,0,-3,-3,-2,1,2,1,-6,1
26.92278552055359,0,3,0,-2,-5,-2,-3,-1,1
26.922789812088013,1,-14,-1,2,2,2,4,-1,1
26.929028034210205,-4,-6,-2,-1,-1,1,0,0,1
26.92903184890747,3,17,4,2,1,-2,-4,-3,1
26.946335792541504,3,2,0,-1,1,1,3,0,1
26.946342706680298,-7,-14,-10,-7,-4,1,3,-4,1
26.951960802078247,1,0,2,-2,-3,-1,-7,8,1
26.95196557044983,-6,-12,-3,3,4,1,5,-4,1
26.95921015739441,7,3,0,-2,-4,-2,-3,3,1
26.95921540260315,5,-2,3,7,7,1,4,6,1
26.968481302261353,0,6,2,-3,-3,-1,-3,-13,1
26.968485832214355,-3,-9,-4,-5,-2,1,-1,-3,1
26.982445240020752,-3,0,0,2,2,3,6,0,1
26.982449769973755,-2,-2,-2,-2,-3,-5,-11,-1,1
26.989929676055908,0,1,-1,2,3,0,5,0,1
26.989935159683228,1,-2,0,0,-4,-4,-1,0,1
27.013226747512817,-3,-2,-2,-3,-1,1,2,-5,1
27.01323390007019,0,-8,2,3,2,0,-1,-4,1
27.015852212905884,-3,-6,-4,-3,-3,-1,-2,0,1
27.01585626602173,6,20,5,0,-2,-4,-2,-2,1
27.01931142807007,-4,1,1,-1,-1,1,1,-3,1
27.01931619644165,0,-5,-1,0,1,1,-1,0,1
27.029056549072266,3,3,-2,-1,-1,-3,-2,4,1
27.029062032699585,-5,-8,-5,-2,-4,-1,-5,-12,1
27.04235029220581,0,4,-2,-5,-5,-4,-4,-1,1
27.04235553741455,0,2,0,0,0,-2,0,2,1
27.048993825912476,1,7,3,2,0,0,0,-8,1
27.0489981174469,-4,-11,-8,-9,-3,5,-1,3,1
27.064779043197632,1,2,-1,2,-1,-4,-1,-8,1
27.064783096313477,-3,-5,-2,0,2,1,-1,0,1
27.07176160812378,2,2,1,3,2,0,2,3,1
27.07176661491394,-1,-7,-5,-4,-5,-2,-1,1,1
27.08858036994934,3,11,2,2,0,-2,-5,-2,1
27.088587999343872,-4,-8,-4,-2,-3,-4,-2,-2,1
27.091235876083374,-6,-6,-2,-2,-2,-2,2,-7,1
27.091240644454956,2,3,0,0,1,-1,-3,-2,1
27.10354232788086,-7,-18,-8,-6,-2,4,3,-6,1
27.103550910949707,11,19,6,5,0,-1,1,14,1
27.10881543159485,-4,-6,-1,2,3,2,4,0,1
27.10881781578064,1,2,1,1,3,3,6,2,1
27.12455940246582,1,10,5,4,2,-2,-10,6,1
27.12456488609314,-1,-8,-5,-3,-2,-2,-1,-2,1
27.13358759880066,2,4,0,0,0,3,3,1,1
27.13359260559082,-3,-9,-4,-5,-3,-4,-6,0,1
27.14801573753357,7,11,4,3,4,5,9,11,1
27.148021697998047,-1,-3,-4,-8,-7,-4,-2,-10,1
27.149956464767456,-2,-1,-3,-1,2,0,2,8,1
27.14996027946472,1,1,4,4,1,-3,-3,-2,1
27.162315130233765,0,-1,0,-1,0,1,2,3,1
27.162319660186768,-8,-14,-6,-3,-5,-1,0,-12,1
27.169095993041992,-1,-4,-3,-1,-2,-2,-1,3,1
27.169100284576416,-2,9,5,5,5,3,4,6,1
27.18551802635193,-4,-2,1,2,1,1,4,-8,1
27.185524940490723,3,-3,2,1,-2,-1,-6,1,1
27.191140174865723,7,7,0,-3,-3,-1,0,4,1
27.191142559051514,-6,-10,-4,-1,-1,1,-1,-6,1
27.20799231529236,0,4,0,-1,-3,-4,-2,0,1
27.207996368408203,-1,-1,0,1,6,6,7,-6,1
27.21017026901245,0,-2,-1,0,0,-2,-3,1,1
27.21017599105835,2,0,1,1,-2,-5,-3,1,1
27.238117456436157,-2,1,-5,-5,-4,-3,-3,-2,1
27.23812174797058,-3,-4,0,-1,1,1,2,3,1
27.240057468414307,1,4,3,3,2,0,-1,-1,1
27.240060329437256,-3,-6,-4,-3,-4,-2,-4,-7,1
27.24471378326416,4,4,0,-2,0,-2,6,3,1
27.244717359542847,-6,0,3,4,2,2,-6,-4,1
27.251539707183838,-7,-5,-1,1,-1,-3,-5,-6,1
27.25155544281006,-2,-2,1,1,0,2,5,3,1
27.26828670501709,-3,4,0,2,4,0,-5,-1,1
27.26829195022583,5,0,-4,-9,-9,-3,-6,-1,1
27.270150661468506,-4,-7,-1,1,0,0,-1,-5,1
27.270154237747192,1,1,0,-1,0,2,9,1,1
27.290476322174072,-2,-8,0,2,-1,-3,-6,-6,1
27.290480375289917,-1,1,1,5,4,1,0,3,1
27.292401790618896,-2,-1,-4,-2,-3,0,2,2,1
27.292405366897583,0,-4,-3,-3,-4,-3,-3,0,1
27.305288791656494,-8,-8,-4,-4,-4,-2,-3,-11,1
27.305298328399658,8,10,3,5,2,2,-3,-3,1
27.31201148033142,1,-4,-2,-6,-4,-1,6,1,1
27.31201672554016,3,4,1,2,0,-3,-2,5,1
27.328369855880737,-1,-5,-2,-2,-1,0,2,2,1
27.328376054763794,-7,-9,-2,-1,1,1,3,1,1
27.331045150756836,12,6,1,2,0,-5,0,3,1
27.33104944229126,-2,-1,-4,-7,-3,2,-2,-6,1
27.342585563659668,1,-13,-1,-1,0,1,2,3,1
27.342591285705566,1,12,1,-1,-2,-1,0,-4,1
27.348865509033203,-4,-6,-1,-1,-2,-1,-4,-2,1
27.34886932373047,7,12,0,-1,-1,-3,-3,-2,1
27.364500522613525,4,3,1,-1,-6,-3,-4,0,1
27.36450457572937,-7,-15,-9,-5,-4,-2,0,-9,1
27.37176275253296,6,17,9,5,4,4,0,0,1
27.371769905090332,-6,-13,-6,-6,-1,2,2,-7,1
27.38804864883423,-1,0,-2,0,0,3,1,0,1
27.38805341720581,3,3,2,1,-1,-1,-2,3,1
27.390286445617676,-3,-14,-5,-2,-2,1,1,3,1
27.390291452407837,-1,6,4,2,3,1,-2,10,1
27.402323484420776,-4,2,-1,0,0,1,0,-5,1
27.40232825279236,3,-5,1,-1,1,-2,3,2,1
27.40912961959839,0,3,0,-1,-2,-1,-3,0,1
27.409133434295654,0,-1,-1,2,1,2,1,0,1
27.433011531829834,-3,-1,-1,-2,-1,-1,-3,-7,1
27.433016061782837,-1,-1,3,2,3,0,1,7,1
27.435041666030884,0,-1,-2,-3,-3,-1,1,-6,1
27.435044765472412,3,4,2,4,0,-7,-6,-4,1
27.448049068450928,-3,-5,-8,-12,-9,1,0,1,1
27.448055028915405,-5,-17,-6,-2,1,2,5,-1,1
27.450098037719727,4,34,8,3,2,4,-5,-4,1
27.450101613998413,-3,-7,-1,-3,-2,0,2,1,1
27.462409257888794,2,0,2,4,3,0,-3,-1,1
27.462414264678955,-2,-8,-3,-3,-2,0,1,-3,1
27.46903419494629,-3,-8,-4,-5,-4,-3,-3,-4,1
27.469038486480713,2,0,2,3,2,0,-2,5,1
27.485155820846558,-1,1,-2,2,0,-1,0,1,1
27.485161781311035,-1,2,5,1,0,3,-1,9,1
27.49197793006897,-3,-4,-3,0,1,-3,-5,0,1
27.491983890533447,-4,-9,-5,-5,-4,0,-3,-3,1
27.508110761642456,2,-1,-1,0,0,-2,0,2,1
27.508116006851196,2,7,-1,0,1,-1,-1,2,1
27.51023530960083,0,-7,-1,0,-2,0,4,3,1
27.510239362716675,-5,4,1,0,0,0,-2,-2,1
27.52187156677246,1,-1,1,2,1,4,3,-1,1
27.52187705039978,-2,5,-1,-1,-6,-8,-8,-3,1
27.538794994354248,-5,-4,1,1,4,3,4,5,1
27.53879952430725,3,-10,-12,-14,-10,1,4,-3,1
27.544827699661255,1,7,4,2,2,-2,-2,5,1
27.54483151435852,-2,3,1,2,2,1,4,3,1
27.55159020423889,0,-4,-1,1,-1,-2,-5,-13,1
27.551594972610474,-7,-6,-3,-1,-1,1,6,-13,1
27.56876850128174,3,-2,0,1,1,-1,-2,6,1
27.56877374649048,4,4,-1,-1,-2,1,-1,0,1
27.57129168510437,0,-2,-3,-3,-1,0,-3,1,1
27.571295976638794,1,1,-1,2,-1,-3,-1,0,1
27.58210563659668,-3,-4,-1,-3,-2,-1,1,-1,1
27.582111120224,-8,-12,-6,-2,-2,-3,-3,-20,1
27.596822023391724,1,4,-3,-6,-6,0,-3,-1,1
27.5968279838562,6,17,10,7,6,3,-6,9,1
27.605174779891968,-4,-2,-3,1,-1,-3,-8,-3,1
27.605180978775024,2,-3,-1,0,0,1,-1,0,1
27.61166214942932,-2,-3,-1,0,2,1,2,-2,1
27.611667156219482,-3,-3,-1,2,-2,-1,0,-1,1
27.62813377380371,0,-4,0,-3,-3,-1,0,-6,1
27.628138780593872,4,13,1,1,3,2,-1,0,1
27.630359172821045,0,-2,0,0,0,-2,-2,3,1
27.63036274909973,-1,-7,-6,-7,-4,-2,0,1,1
27.641765832901,1,4,3,2,0,1,-5,-11,1
27.64177107810974,-1,-1,0,3,1,0,5,7,1
27.65274977684021,0,-1,-2,-1,-3,-1,0,3,1
27.65275764465332,2,-9,-4,-1,4,-2,-3,-9,1
27.664506912231445,4,11,3,1,0,0,2,10,1
27.664510250091553,0,-2,1,1,2,0,-4,-3,1
27.67128896713257,3,12,-1,-4,-5,-2,0,-8,1
27.671292066574097,-5,-9,-4,-4,-3,0,-2,-2,1
27.688628435134888,-1,-4,-3,-5,-5,0,-1,-6,1
27.688631057739258,2,1,2,2,4,5,2,3,1
27.68968439102173,-1,-5,-2,-2,-1,-3,0,2,1
27.689685821533203,-2,4,2,4,2,0,2,2,1
27.701687335968018,-1,-4,-3,-3,-4,-4,-10,-10,1
27.70169162750244,2,-2,0,0,-2,-2,1,3,1
27.711531400680542,8,-2,-4,-2,-4,1,5,8,1
27.711536645889282,2,10,5,2,-1,-3,-3,8,1
27.724974632263184,-1,-5,-2,-1,1,-1,1,1,1
27.724979639053345,-6,-15,-3,-2,0,5,5,0,1
27.731780290603638,4,18,4,1,0,0,4,8,1
27.731786966323853,-5,-6,-2,0,-2,-4,0,-4,1
27.748242616653442,0,0,0,4,3,1,2,6,1
27.74824810028076,3,5,0,-3,-4,-4,-4,-1,1
27.75129771232605,-5,-14,-6,-3,1,-2,1,-6,1
27.75130343437195,-1,-2,-3,-3,-3,-3,-3,-1,1
27.76210045814514,1,0,2,3,-1,0,-1,-1,1
27.762107610702515,1,-1,-1,1,-1,-1,2,2,1
27.771930932998657,-4,-8,0,3,1,-2,-5,-2,1
27.771934509277344,7,13,5,2,2,3,-1,-8,1
27.78586196899414,-8,-8,-2,1,1,-2,1,-3,1
27.78587007522583,-1,1,-4,-4,-2,-1,0,3,1
27.793479919433594,-3,-9,0,1,-2,-2,-5,-2,1
27.793484210968018,1,-2,-2,0,1,1,6,5,1
27.80829882621765,0,3,1,1,-1,-5,-3,1,1
27.808305978775024,5,9,3,3,3,3,8,10,1
27.810629844665527,-9,-8,-6,-8,-5,-2,-1,-4,1
27.810636043548584,3,-12,-2,3,1,-3,-5,-1,1
27.82217812538147,2,15,4,-1,1,1,6,6,1
27.822185754776,-1,-2,-2,-4,-4,-5,-9,-9,1
27.831040382385254,1,0,1,0,-1,2,1,-3,1
27.831045150756836,-6,-15,-4,-1,2,3,5,7,1
27.845322370529175,3,13,5,3,3,0,-2,4,1
27.845327854156494,-6,-3,-7,-12,-12,-7,-14,-9,1
27.851555585861206,-2,1,1,2,1,1,3,-3,1
27.85155940055847,-4,-2,-2,-3,-3,-2,-8,-9,1
27.86729598045349,-1,-9,-3,2,1,1,7,5,1
27.867300033569336,0,3,-1,0,1,0,0,-2,1
27.87478733062744,-1,0,-2,0,1,-1,-1,2,1
27.874794483184814,0,3,3,2,1,1,4,7,1
27.881279706954956,-5,-12,-7,-7,-4,2,-4,-9,1
27.88128352165222,5,3,1,3,2,1,1,-4,1
27.897688388824463,8,13,4,4,2,-1,-1,15,1
27.897691011428833,2,9,3,4,3,0,-3,0,1
27.904483556747437,-2,-6,-5,-6,-4,-2,-2,-6,1
27.904486417770386,-3,-5,-3,-5,-1,-1,-2,-3,1
27.91107416152954,-2,-8,-3,-3,-3,-1,-3,-4,1
27.911076307296753,0,6,4,0,0,0,1,5,1
27.92729115486145,-2,-5,-2,-2,-2,0,1,0,1
27.927295684814453,2,1,-1,5,1,-4,-5,-17,1
27.934099674224854,-1,-12,-4,1,4,4,14,9,1
27.934103965759277,-2,10,1,-3,-2,1,-15,-24,1
27.941666841506958,0,5,0,-1,-4,-7,-10,-4,1
27.941671133041382,-5,-7,0,-2,0,-1,0,1,1
27.95112633705139,4,0,1,2,1,1,0,-2,1
27.951131582260132,2,-2,-3,0,-2,0,4,4,1
27.965181827545166,2,-5,0,1,2,0,1,-4,1
27.9651882648468,-3,2,-1,-3,-2,-1,-4,-1,1
27.979326486587524,-3,-6,-4,-4,-2,0,-5,-9,1
27.97933268547058,0,-5,-3,-1,-2,0,3,7,1
27.988038063049316,3,6,2,0,-1,0,-1,-2,1
27.98804545402527,-2,-9,0,3,2,1,4,4,1
27.994220972061157,3,2,-1,-1,2,-1,-3,5,1
27.994226455688477,3,9,3,1,-1,-2,-1,5,1
28.010811805725098,-8,-9,-5,-4,-1,3,4,-2,1
28.010817527770996,-2,0,-2,-2,-3,1,-2,2,1
28.01315140724182,-4,0,4,5,3,3,4,-2,1
28.01315450668335,-3,-4,-1,-1,-3,-2,-2,-5,1
28.024929523468018,3,-4,-6,-6,-2,4,5,8,1
28.0249342918396,-4,-10,-2,-2,-4,-2,-4,-5,1
28.031755208969116,8,34,11,4,1,-2,-2,3,1
28.031760454177856,-1,-5,-1,0,2,-2,-8,-3,1
28.047356843948364,-3,-4,0,1,2,1,4,-2,1
28.047362565994263,6,2,0,1,1,1,3,-1,1
28.054067373275757,-4,-9,-3,-5,-5,-5,-8,-5,1
28.0540714263916,-2,-3,-2,-1,0,-1,2,-3,1
28.070927381515503,4,5,0,0,0,1,1,1,1
28.07093095779419,1,-4,-5,-6,-3,1,1,-1,1
28.073392391204834,-4,-3,-1,2,-1,-2,-1,3,1
28.073397159576416,4,-1,-4,-5,-1,4,3,6,1
28.08496928215027,-4,-8,-1,0,0,-5,-14,-5,1
28.084973573684692,3,11,5,5,5,2,4,10,1
28.09156847000122,-1,-9,-2,1,0,0,4,-10,1
28.091572523117065,0,4,-1,-3,-1,0,3,5,1
28.107798099517822,1,0,1,0,-4,-4,-3,1,1
28.10780429840088,6,-8,-7,-5,-3,3,2,-11,1
28.121679306030273,-3,7,3,0,2,2,0,9,1
28.121683835983276,1,2,3,2,2,-2,0,-4,1
28.130544185638428,1,-3,-5,-4,-5,-2,5,-7,1
28.13054847717285,-3,1,-1,0,-2,-2,-2,2,1
28.132713794708252,-5,-21,-5,-3,-3,-2,-3,-11,1
28.132736444473267,0,11,2,0,0,-1,-2,0,1
28.14492917060852,-1,-1,0,-1,-2,1,-2,4,1
28.144933938980103,-2,5,2,-2,-1,0,1,8,1
28.151119232177734,2,-5,-1,0,-1,-2,0,9,1
28.151122570037842,-4,-6,-2,-2,0,-2,-4,-3,1
28.16733479499817,0,-7,-3,1,2,1,5,7,1
28.16733980178833,-2,10,5,4,3,0,-5,2,1
28.17414164543152,-1,1,-2,-4,-5,0,-3,-5,1
28.17414617538452,-1,-13,-3,1,-2,-5,3,-1,1
28.190636157989502,-7,6,1,-2,-1,2,-9,-8,1
28.190643787384033,4,2,0,1,-1,-1,1,-2,1
28.19299840927124,-2,-1,-4,-4,-2,-1,-4,-1,1
28.193002939224243,-1,-3,-1,1,-1,-2,2,4,1
28.206038236618042,4,2,-3,-2,0,-4,-2,-6,1
28.206042528152466,1,-1,3,4,5,3,9,8,1
28.21180748939514,1,13,2,0,-1,0,-3,-2,1
28.21181297302246,-4,-13,-8,-6,-4,1,2,-7,1
28.226917505264282,5,17,7,6,4,-1,4,8,1
28.226923942565918,-5,1,0,-1,-4,-4,-5,-9,1
28.234158515930176,0,-6,-2,-1,0,0,4,1,1
28.234163284301758,-1,0,0,1,2,1,-1,0,1
28.24971055984497,-2,-2,0,-2,-1,-3,1,5,1
28.249714612960815,-4,-9,-5,-2,-2,0,1,-17,1
28.250595331192017,-1,4,2,0,0,-2,0,3,1
28.250598430633545,-6,-11,-3,0,-1,1,0,-2,1
28.266324281692505,3,12,-2,-2,-5,-11,-14,-16,1
28.266329288482666,-3,-5,-4,-4,-2,2,6,9,1
28.279871940612793,2,-2,-1,0,0,-2,-2,-5,1
28.279876947402954,-3,-1,-1,-2,1,2,1,-7,1
28.28660011291504,-1,-7,0,3,1,0,0,-3,1
28.2866051197052,2,1,-2,-4,0,-1,-6,-3,1
28.294363021850586,-1,1,-2,-1,-2,0,-2,-2,1
28.29436755180359,6,8,2,-2,-1,-1,-1,4,1
28.31017017364502,-4,-13,-1,-1,-2,1,3,1,1
28.310175895690918,7,22,3,1,-1,-4,-8,-9,1
28.311282634735107,-4,-11,-6,-4,-2,2,4,1,1
28.31128716468811,0,0,-1,-1,-2,-4,-4,-5,1
28.327139854431152,1,-4,-1,2,3,4,1,0,1
28.327146768569946,4,9,1,0,-3,-4,-2,4,1
28.332178354263306,-1,-5,3,3,1,-2,-5,-7,1
28.3321852684021,-3,1,-4,-2,-5,-2,-5,-11,1
28.346942901611328,1,0,-1,-2,1,5,9,8,1
28.346948623657227,-2,-7,-2,-2,-2,2,3,6,1
28.354268312454224,4,3,-1,0,1,-1,-4,-6,1
28.354274034500122,4,8,4,7,5,2,4,5,1
28.369479656219482,-5,-10,-8,-11,-7,-1,-6,-6,1
28.36948299407959,-8,-10,-2,-1,-2,-1,1,-4,1
28.37017059326172,1,10,4,1,2,0,1,7,1
28.370173931121826,2,-4,0,-2,0,-3,-2,-6,1
28.385098457336426,4,-3,3,6,3,-1,-2,3,1
28.385101318359375,1,8,2,-1,-1,0,-2,0,1
28.399869203567505,-6,-11,-9,-8,-7,-3,-6,-8,1
28.399874210357666,-6,-5,-3,1,3,2,7,3,1
28.406660318374634,2,5,-2,-3,-5,-2,-5,1,1
28.406665802001953,0,-5,1,4,3,2,0,-2,1
28.414250373840332,0,-2,1,2,1,-1,-1,0,1
28.414255619049072,-3,2,-3,-6,-4,-1,-5,-3,1
28.429880619049072,1,1,1,1,-1,2,-2,0,1
28.429885625839233,-2,-8,-2,-1,-3,-4,-4,1,1
28.43083906173706,0,-2,-1,3,5,2,2,0,1
28.43084216117859,4,13,4,2,-3,-3,2,-2,1
28.446062326431274,-3,-3,0,0,0,0,-1,-5,1
28.4460666179657,0,-4,-1,-1,-1,-2,0,1,1
28.451748847961426,-1,1,-1,-1,0,4,6,8,1
28.451754570007324,-3,-9,-1,2,0,-2,-8,-5,1
28.466739416122437,-3,0,-1,3,2,2,4,1,1
28.466744899749756,-1,-3,-5,-10,-7,-7,-10,1,1
28.47428321838379,1,5,-1,-3,-3,-5,3,-4,1
28.47428798675537,-1,1,-2,-1,1,1,-11,-5,1
28.4897620677948,0,2,2,4,2,0,5,0,1
28.489766597747803,-1,-5,-1,2,2,3,-3,-2,1
28.490873336791992,2,2,-1,-2,-2,-3,-3,0,1
28.49088144302368,-5,-5,-3,-2,-2,0,-1,3,1
28.506117343902588,3,4,0,-3,-2,-3,2,-5,1
28.50612187385559,-3,-2,0,1,3,0,4,2,1
28.511780261993408,-4,-3,-2,-3,-2,-2,-7,-1,1
28.51178550720215,2,2,-1,-3,-3,0,3,1,1
28.526650428771973,-4,-8,-2,-1,-2,-2,-2,-3,1
28.526654958724976,4,7,1,0,0,-2,5,9,1
28.53417205810547,2,-2,1,2,2,2,-1,-4,1
28.53417658805847,4,3,2,2,2,-2,-3,-5,1
28.557931423187256,-5,-12,-4,-2,-1,1,1,7,1
28.55793833732605,2,2,-1,-2,-3,-2,-10,-4,1
28.55953860282898,0,0,2,2,1,-1,-5,1,1
28.559544324874878,9,4,3,2,-1,-2,6,12,1
28.566563844680786,-3,-4,0,-2,0,-2,-2,-7,1
28.566569089889526,-8,-9,-3,0,1,3,3,-5,1
28.572354316711426,1,16,5,2,0,1,-2,9,1
28.5723614692688,-5,-8,-1,-2,-1,-2,-5,-9,1
28.586692810058594,-2,-6,-4,-5,-4,2,0,3,1
28.586698055267334,-5,0,-3,-2,-5,-4,-5,-18,1
28.59427571296692,-8,-10,-5,-7,-5,-2,0,-12,1
28.59428095817566,-1,-5,0,-2,0,0,-1,2,1
28.609687566757202,6,13,7,4,2,0,-2,4,1
28.609692811965942,-5,-8,-5,-2,-1,3,1,-5,1
28.61670231819153,-7,-7,-3,1,1,2,0,-7,1
28.616706609725952,-1,3,-2,-3,-3,-4,-5,-7,1
28.626303672790527,-2,-10,-6,0,0,0,-1,-3,1
28.626310110092163,4,14,6,3,1,-2,-5,9,1
28.631988048553467,2,-3,-1,-3,-4,-1,-2,-3,1
28.63199257850647,-1,-1,-1,1,3,5,6,9,1
28.646713495254517,0,-1,-3,-4,-4,-3,-6,-7,1
28.646718740463257,3,-2,1,2,3,1,1,4,1
28.654012203216553,-2,2,1,0,1,1,3,-6,1
28.65401530265808,3,1,1,0,0,0,-1,-1,1
28.677279233932495,2,1,-3,-7,-6,-3,-5,-6,1
28.677283763885498,-1,0,-1,-1,1,-4,-1,-1,1
28.67815852165222,1,1,-2,1,2,2,1,-3,1
28.67816138267517,-1,6,0,-1,-4,-2,-3,-1,1
28.68583059310913,0,4,3,3,2,-2,-1,-2,1
28.685834169387817,0,-8,-4,-1,-1,1,4,2,1
28.69163155555725,3,3,1,2,2,-3,-1,-2,1
28.691635608673096,-2,-7,-3,-7,-6,-4,-4,-1,1
28.706816911697388,0,5,4,4,2,2,0,7,1
28.706822872161865,-3,-4,-3,-1,-1,-1,-6,-11,1
28.714148998260498,5,3,1,-3,-3,-1,5,7,1
28.714153289794922,-1,-4,-2,0,0,2,7,3,1
28.729820013046265,-2,3,3,1,2,-1,-1,-1,1
28.729825019836426,-3,-7,-5,-7,-4,-3,-4,-5,1
28.73083996772766,0,-17,-2,0,-1,2,-2,2,1
28.73084330558777,8,37,9,5,3,-1,2,8,1
28.74632453918457,1,0,3,4,3,1,2,1,1
28.746329307556152,-1,-2,-2,-2,-2,-3,1,0,1
28.7517671585083,-1,-5,-3,-3,-5,-1,-2,-4,1
28.751771926879883,-1,-11,-5,-2,-3,-3,-3,0,1
28.76686716079712,6,5,4,4,2,1,0,5,1
28.7668719291687,-1,-1,-1,-1,2,1,6,13,1
28.774948358535767,-1,6,0,-5,-2,-3,-8,-3,1
28.77495574951172,-3,-7,-3,-2,0,0,1,0,1
28.789197206497192,0,2,1,-1,0,3,3,0,1
28.789201736450195,0,0,2,1,-2,-4,-5,-2,1
28.805530071258545,-4,-5,-2,-2,-2,-7,-12,-15,1
28.805534839630127,-1,-2,-3,-1,2,5,8,3,1
28.80813503265381,-2,2,-1,0,0,-2,-9,-9,1
28.808143377304077,3,3,1,0,1,4,2,0,1
28.811760902404785,-5,-5,0,0,-4,-3,1,0,1
28.811765909194946,3,2,0,-2,-5,-3,-10,-5,1
28.82884693145752,0,-5,-1,-1,-2,-3,-3,-8,1
28.82885193824768,-1,8,-2,-8,-3,5,7,5,1
28.83424210548401,0,-7,0,0,1,1,2,-3,1
28.83424711227417,4,7,2,2,1,-1,0,6,1
28.8494610786438,-2,-4,-1,-1,-3,-2,-1,0,1
28.849467515945435,1,-4,2,7,4,1,0,-2,1
28.856646060943604,0,3,0,-4,-3,1,6,19,1
28.856650829315186,-3,-7,-3,-1,-3,-2,0,-12,1
28.865863800048828,0,1,0,0,3,4,0,-2,1
28.865867853164673,0,-6,4,5,3,-2,0,2,1
28.871554613113403,-5,9,-2,-5,-4,-3,-6,-3,1
28.87155818939209,-6,-12,-6,-4,-2,-2,-2,-10,1
28.888422966003418,1,2,-4,-3,-3,1,4,6,1
28.888427257537842,1,0,2,2,1,-3,-3,-4,1
28.89431118965149,3,-1,-4,1,5,0,2,-3,1
28.894317865371704,-2,-5,-2,-3,-2,1,-4,-1,1
28.909254550933838,-3,-3,-3,-2,0,-2,-1,0,1
28.909260034561157,2,2,1,-3,-2,-1,-3,0,1
28.917750358581543,1,1,4,3,4,0,2,-6,1
28.917754888534546,-3,1,-2,-6,-5,-3,-6,4,1
28.932312726974487,3,-8,-6,-5,-3,0,6,3,1
28.932316541671753,2,16,4,3,2,1,3,7,1
28.93319296836853,1,7,3,3,3,1,1,4,1
28.93319582939148,-1,-10,0,4,2,2,4,6,1
28.95678734779358,0,0,-4,-2,-4,-5,-4,-3,1
28.956793785095215,-4,-4,-2,-2,-4,-3,-1,2,1
28.957870960235596,0,0,-2,-2,-1,2,2,1,1
28.95787525177002,6,9,2,-1,1,0,5,4,1
28.971092462539673,-1,2,6,2,2,-1,1,9,1
28.971097469329834,0,-7,-3,-1,-1,-1,-2,-12,1
28.97677516937256,-2,2,1,1,-2,-2,1,-2,1
28.97678017616272,-5,-8,-1,1,-1,-1,0,1,1
28.99251914024353,3,0,-1,-3,-3,-3,-9,-4,1
28.99252486228943,1,-1,1,-1,2,2,-1,-1,1
28.9935622215271,3,-6,-1,-4,-5,-1,1,-5,1
28.993565559387207,-2,-2,0,-1,1,-3,-9,-4,1
29.008661031723022,3,12,3,2,-1,2,10,10,1
29.008665800094604,-7,-3,-7,-7,-4,0,-1,3,1
29.013622283935547,0,-5,-1,1,0,1,-2,0,1
29.013625383377075,0,-4,-1,1,-1,0,-2,-9,1
29.031863689422607,-4,3,0,-1,-3,-3,-6,-5,1
29.031869649887085,-1,-4,-3,-3,-5,-4,-6,-5,1
29.037659168243408,4,-1,-1,3,3,1,3,4,1
29.03766393661499,2,14,2,0,-1,1,2,15,1
29.052480936050415,-3,-7,-2,-3,2,0,-3,-15,1
29.052486658096313,5,2,-1,-2,-4,-1,0,-1,1
29.053452491760254,-5,-6,-4,-1,-1,0,-1,2,1
29.05345582962036,3,-2,1,0,1,-1,0,2,1
29.068543672561646,-5,-6,-3,-1,0,1,1,-5,1
29.068548917770386,4,6,6,7,3,0,3,-1,1
29.074307918548584,2,7,-3,-2,2,2,2,1,1
29.074316024780273,-2,-7,-4,-6,-2,-3,1,-3,1
29.089287996292114,4,2,2,2,1,-1,-4,0,1
29.08929467201233,-5,-3,-4,-4,-5,-1,-3,1,1
29.09610891342163,-2,-3,0,2,1,0,7,9,1
29.096111297607422,-1,4,-2,-1,-2,1,-13,-11,1
29.112600803375244,1,-3,-2,-3,-1,-2,2,-1,1
29.112605810165405,4,4,2,3,5,0,5,2,1
29.11377453804016,-3,-13,-5,-4,-5,-6,-9,-2,1
29.113778114318848,4,13,5,-1,-1,0,3,0,1
29.12848472595215,-4,-3,-2,-3,-2,-1,-2,-2,1
29.128489017486572,0,-2,-1,-1,-3,-3,-5,-6,1
29.134111642837524,-6,-5,-4,-5,-1,1,-2,-9,1
29.134116172790527,-3,-6,1,2,1,0,1,-2,1
29.14921522140503,4,2,2,2,-1,1,0,4,1
29.149219036102295,0,0,-2,0,1,0,-1,2,1
29.16511297225952,-1,-4,-2,-4,-4,-4,-6,-5,1
29.165117979049683,2,4,1,-2,-1,0,1,5,1
29.17244005203247,8,6,0,-1,-1,-3,-6,0,1
29.172444105148315,-1,2,3,4,4,5,6,6,1
29.17332696914673,0,1,-1,0,-1,0,-3,-6,1
29.1733295917511,-8,-13,-7,-7,-5,1,0,-9,1
29.18873381614685,0,-2,-2,2,2,6,15,6,1
29.188738346099854,2,4,2,-2,-1,-3,-6,-4,1
29.19432783126831,4,6,3,5,4,2,3,3,1
29.194332122802734,-3,-9,-1,0,-1,-1,1,-6,1
29.209351062774658,-2,1,0,0,0,3,3,-3,1
29.20935606956482,-2,-3,-1,2,2,1,1,-3,1
29.21666383743286,0,2,2,0,-3,-3,-5,-3,1
29.216668128967285,-1,-3,-3,-2,-2,-1,3,3,1
29.23420023918152,-2,-5,-3,-2,-1,-2,-3,-1,1
29.2342050075531,3,8,4,2,-1,-2,-3,-1,1
29.23523211479187,0,-6,1,3,3,1,-1,9,1
29.235236406326294,-2,-3,-3,-1,-1,-2,-4,-14,1
29.24756097793579,-5,-9,-5,-7,-8,-7,-10,-4,1
29.24756360054016,1,2,-1,-2,-3,-1,-2,4,1
29.254202842712402,-4,0,1,3,0,-5,2,-9,1
29.254207134246826,-5,-1,-2,0,0,2,2,-1,1
29.2774977684021,-3,-3,-1,-1,-1,0,-3,0,1
29.277501821517944,2,-9,-4,-3,-2,-5,-4,-3,1
29.27845072746277,4,7,2,-5,-5,-1,-3,5,1
29.278453826904297,0,3,4,7,7,1,2,3,1
29.292399883270264,-4,-5,-4,-3,-2,-1,1,-9,1
29.292404174804688,3,3,1,-1,-2,-4,-6,-1,1
29.2933509349823,-2,0,-6,-8,-6,-3,-6,2,1
29.293354034423828,2,-2,1,0,-1,-1,2,2,1
29.30857491493225,2,5,3,1,1,3,2,3,1
29.30858039855957,-3,-7,-3,0,-1,0,3,4,1
29.31426763534546,4,10,-1,2,-3,-1,-3,-14,1
29.314270734786987,-5,-5,-4,-6,0,3,5,7,1
29.32933735847473,-1,-4,-2,-1,-3,-3,-3,2,1
29.329342365264893,-3,-4,-2,-2,1,0,-2,-5,1
29.336690187454224,2,-5,-3,-3,0,2,4,-1,1
29.33669376373291,1,1,1,4,0,-1,-2,1,1
29.352340698242188,2,7,1,3,0,-4,-7,-12,1
29.35234522819519,-4,-4,-4,-2,-1,1,6,9,1
29.353244304656982,0,-4,-2,0,1,0,-3,2,1
29.35324740409851,1,1,1,1,-1,-1,-1,1,1
29.368706226348877,1,-3,-1,-3,-2,0,-2,-4,1
29.36871099472046,-1,-2,-2,0,-2,0,2,5,1
29.374111890792847,0,10,3,1,1,1,3,2,1
29.37411618232727,2,-6,-1,0,-3,-3,-2,0,1
29.389286279678345,-4,8,3,1,-1,-2,-4,0,1
29.389291524887085,-4,-11,-4,-3,-1,3,4,-4,1
29.39667272567749,-1,11,7,5,3,3,4,7,1
29.396676778793335,-3,-1,-1,-1,-6,-8,-13,-14,1
29.412439584732056,4,-1,0,4,3,3,4,8,1
29.41244411468506,-7,-3,-7,-10,-8,-4,-5,-5,1
29.413422346115112,-5,-13,-7,-5,-5,-1,-3,1,1
29.41342544555664,-2,-5,-4,1,-3,-5,-7,-25,1
29.435105323791504,-1,4,1,-1,2,1,6,4,1
29.435110092163086,1,1,0,4,2,-3,-3,-5,1
29.436403274536133,0,-1,0,2,3,-1,1,0,1
29.436408281326294,-5,-9,-4,-4,-2,0,-1,3,1
29.448803901672363,0,2,0,0,-1,-3,-2,-3,1
29.448806524276733,-4,-4,-3,-3,-2,2,-1,3,1
29.4563250541687,-1,-3,0,-1,-2,-2,-2,-5,1
29.45632839202881,6,11,6,4,5,1,3,8,1
29.47160792350769,2,-2,-1,5,5,4,5,2,1
29.47161102294922,-7,1,-2,-8,-5,-6,-10,0,1
29.47919726371765,-2,-12,-4,0,1,4,11,5,1
29.479201316833496,1,11,3,0,1,-1,-6,-10,1
29.488455057144165,3,0,1,1,1,2,5,7,1
29.488458395004272,2,1,4,7,2,-3,-3,-6,1
29.494252920150757,-3,-5,-4,-4,-3,-4,-3,-1,1
29.49425745010376,0,-5,-4,-3,-1,2,4,7,1
29.51117968559265,0,-1,0,-2,1,1,0,-1,1
29.511184215545654,6,7,-3,-5,-3,-1,0,-8,1
29.516711235046387,-3,-1,2,0,-3,-5,-11,4,1
29.51671528816223,5,11,4,4,3,3,5,5,1
29.532320499420166,-3,-1,-4,-5,-6,-4,-7,-3,1
29.532325744628906,-3,-8,-2,-3,-1,2,2,0,1
29.53326940536499,2,4,2,2,3,1,2,-3,1
29.53327226638794,1,-2,-2,-1,2,0,1,2,1
29.54876160621643,-2,-6,-2,-1,-4,-1,-3,-2,1
29.548766136169434,-2,4,2,3,1,-2,0,-6,1
29.55458164215088,-5,-2,-2,1,0,-1,-3,-9,1
29.554587364196777,-2,-6,0,0,-2,-4,-3,-5,1
29.569060802459717,0,0,-2,1,0,-1,-1,-2,1
29.56906485557556,-3,-6,-5,-2,-2,3,2,4,1
29.586095571517944,-2,-14,-8,-5,-6,-7,-6,-18,1
29.586100816726685,-1,10,4,-1,1,4,-2,14,1
29.592761754989624,-2,-4,2,1,1,1,4,1,1
29.59276819229126,-2,2,1,-1,-3,0,-1,-6,1
29.59390354156494,4,-3,2,3,2,4,5,5,1
29.593908309936523,-3,-11,-8,-5,-5,1,1,-5,1
29.608933687210083,4,8,2,-3,-1,-1,-2,6,1
29.608940601348877,3,0,0,3,2,2,3,2,1
29.614335775375366,0,4,0,0,2,0,1,2,1
29.614341020584106,2,-4,-1,-1,-2,0,2,-7,1
29.629642248153687,-10,-9,-1,-1,0,-2,-2,5,1
29.629648685455322,1,7,4,4,3,2,1,-8,1
29.63681387901306,2,5,0,-1,-4,-1,-2,-3,1
29.6368191242218,-1,-1,-1,-1,-1,-4,-1,1,1
29.653273344039917,-2,-6,-3,0,3,1,0,-6,1
29.653278827667236,4,-2,-4,-1,-3,-1,-3,0,1
29.654481649398804,0,2,-2,-6,-4,0,2,1,1
29.65448522567749,2,1,4,4,4,3,2,12,1
29.66862440109253,0,0,-3,-1,-4,-4,-1,-3,1
29.668628931045532,-1,-3,-2,-3,-1,-2,-2,-1,1
29.67484951019287,-2,1,0,0,1,-1,-2,2,1
29.674856185913086,7,-3,-4,-1,-2,1,5,-2,1
29.689255475997925,1,12,2,0,-2,-5,-8,4,1
29.68925976753235,0,-1,0,-1,-3,-1,-3,-4,1
29.696752548217773,-5,-2,-1,1,2,1,0,5,1
29.696757316589355,-3,-11,-5,-9,-10,-8,-8,-11,1
29.712599515914917,0,0,2,1,1,3,3,-5,1
29.71260380744934,-3,-5,-4,-3,1,3,2,-2,1
29.713670015335083,5,5,4,4,2,-2,0,3,1
29.713674068450928,-4,-2,-3,-3,-1,0,-4,-1,1
29.73668146133423,-4,-4,-2,-2,-2,0,-2,-3,1
29.736685276031494,1,0,0,1,-1,-3,0,4,1
29.737557649612427,-2,-5,-3,0,0,1,1,-3,1
29.737561225891113,1,10,2,2,2,-3,-7,4,1
29.752151012420654,-6,-13,-7,-7,-6,-1,-2,0,1
29.75215744972229,-1,9,-1,-2,1,0,-6,-12,1
29.756691455841064,1,-2,3,2,3,0,0,1,1
29.75669574737549,0,0,-2,0,0,0,2,-1,1
29.77185821533203,4,-2,-3,0,1,0,5,3,1
29.771865367889404,-2,-1,3,4,2,2,2,4,1
29.788210153579712,1,4,-2,-3,-5,-2,-5,2,1
29.788214445114136,1,3,3,4,1,-1,4,2,1
29.79045534133911,-2,-4,-3,2,0,-1,-2,-13,1
29.790459156036377,0,-1,0,-3,-3,-1,1,5,1
29.79446530342102,-1,2,2,2,-1,0,-1,-1,1
29.794470071792603,-5,-3,-3,-3,0,0,0,-2,1
29.809301376342773,5,1,2,3,1,0,7,5,1
29.80930995941162,-2,-10,-2,-2,-2,-4,-3,-3,1
29.81674289703369,5,13,-1,-2,-4,-1,-3,-2,1
29.816747665405273,-2,1,1,2,2,0,-1,1,1
29.83180594444275,-2,-2,-4,-6,-3,2,0,-4,1
29.831810235977173,0,-6,0,0,-2,-2,-3,-4,1
29.83929681777954,-2,-9,-4,-3,-3,-3,-1,-1,1
29.839301586151123,4,-1,1,2,0,-2,1,0,1
29.848751068115234,-1,0,-3,-4,0,1,-2,-4,1
29.848757028579712,-2,1,-1,-1,-3,-5,-5,2,1
29.854288339614868,0,-5,-3,-4,0,0,0,-3,1
29.854292631149292,1,2,-1,0,0,-1,-3,1,1
29.869252920150757,-1,-2,2,4,2,-1,-3,0,1
29.869257926940918,7,3,-2,-3,-3,3,5,5,1
29.877298593521118,-5,-4,-2,1,0,0,-7,-9,1
29.87730598449707,-1,-3,1,0,0,2,5,7,1
29.891713857650757,-1,0,0,-1,1,-4,-4,-4,1
29.8917179107666,2,-6,-3,-2,-3,-1,0,6,1
29.899737119674683,0,8,3,2,1,3,3,4,1
29.89974331855774,-3,-5,-3,-1,0,4,1,-5,1
29.91500473022461,2,3,1,-1,-5,-8,-6,-3,1
29.91500949859619,-4,-1,1,2,2,1,0,2,1
29.916101932525635,-3,-7,-4,-5,-1,1,5,0,1
29.91610550880432,-1,0,-1,-2,-2,-1,-4,-8,1
29.928896188735962,-1,0,0,-4,-2,0,1,1,1
29.928900003433228,-1,3,3,4,5,-1,-1,-1,1
29.944448471069336,-3,-4,0,-1,-2,-3,-4,0,1
29.944451332092285,0,1,-7,-7,-8,-4,-3,-12,1
29.952030658721924,2,6,1,0,2,1,-3,-1,1
29.95203685760498,-1,-2,0,2,1,0,1,-3,1
29.95965313911438,-6,2,0,0,-3,-3,-5,-8,1
29.95965886116028,-4,-6,-3,-3,0,0,-1,3,1
29.974984645843506,-1,-5,-2,-2,-2,1,-2,-4,1
29.97498917579651,1,4,2,2,0,0,1,7,1
29.977858066558838,1,-1,0,0,3,4,5,-3,1
29.97786545753479,-1,-3,-2,-4,-3,-1,-3,0,1
29.98921799659729,-2,-1,-4,-3,-3,-1,2,2,1
29.98922324180603,-1,-1,0,-1,1,2,-1,-3,1
29.996705532073975,-1,-2,-2,3,-1,-4,-2,2,1
29.9967098236084,-1,-2,1,3,4,1,1,3,1
30.012235641479492,0,-6,-1,0,1,1,-1,-1,1
30.01224160194397,4,5,-2,-3,-4,-4,-3,-4,1
30.020179271697998,-1,1,0,2,4,1,1,-6,1
30.02018404006958,2,1,4,1,-1,-3,-4,2,1
30.034712076187134,-4,-5,0,3,1,1,6,-2,1
30.034716606140137,-4,-8,-3,-5,-5,-4,-8,-2,1
30.035647869110107,2,-1,1,1,-2,-1,-3,2,1
30.035650968551636,-2,1,-1,1,-1,1,3,4,1
30.049397468566895,3,2,1,1,2,-1,-1,-2,1
30.049402952194214,-2,-1,-2,-4,-1,0,0,-1,1
30.06520366668701,5,3,3,2,-1,-1,0,1,1
30.06520962715149,-1,-4,-7,-6,-1,2,3,-4,1
30.07128930091858,-9,-5,-7,-7,-8,-5,-9,-8,1
30.07129216194153,1,8,2,6,6,0,0,0,1
30.07882595062256,2,1,-1,-1,-1,2,0,0,1
30.078828811645508,1,-3,1,1,2,2,6,6,1
30.095200777053833,3,4,3,2,1,0,0,-1,1
30.095202684402466,-2,-9,-5,-4,-4,-3,-3,-7,1
30.09614872932434,-1,-3,-2,-4,-3,0,2,3,1
30.096150159835815,2,5,2,4,1,-1,0,-5,1
30.109261989593506,2,0,0,0,2,3,2,6,1
30.109266757965088,-2,-10,-2,2,2,2,-1,-5,1
30.116689205169678,-4,6,0,-5,-4,-4,-5,-12,1
30.11669421195984,2,6,2,-2,-1,-3,-7,4,1
30.13183331489563,8,3,0,2,3,0,3,-3,1
30.131839275360107,-1,3,1,2,2,1,5,11,1
30.13927674293518,-2,-7,-4,-6,-4,-1,-1,0,1
30.13928246498108,-1,-1,0,-2,0,-2,-2,-3,1
30.15480613708496,-4,-4,-1,-1,-1,2,-2,-1,1
30.154810667037964,0,-1,-1,-3,-4,-1,1,-6,1
30.15581226348877,4,-2,0,3,3,-2,-4,-4,1
30.155815601348877,0,7,0,0,4,3,5,4,1
30.169111490249634,-5,-5,-2,-5,-6,-5,-7,3,1
30.16911554336548,-6,-2,-3,-4,-3,-1,1,-6,1
30.176443576812744,-1,-6,-1,0,-1,0,-4,5,1
30.176446437835693,-1,-4,-1,3,1,0,0,-1,1
30.191657781600952,0,-2,-2,-4,-2,-1,2,-4,1
30.191662073135376,12,9,4,2,2,1,1,6,1
30.199223041534424,-1,7,4,4,4,3,6,13,1
30.199227809906006,-1,0,0,2,0,-4,-3,-2,1
30.21480393409729,-6,-4,-7,-6,-3,2,3,2,1
30.214808464050293,-1,-5,0,1,-3,-1,-4,-2,1
30.21574568748474,-1,-3,-1,-3,-1,0,1,-1,1
30.21574854850769,-1,-3,-1,-2,-5,-2,-3,0,1
30.229310989379883,1,4,3,3,0,2,-1,-2,1
30.229315519332886,-3,-3,-1,1,0,1,3,-2,1
30.23666524887085,1,0,-1,-3,-3,-3,-2,-2,1
30.236669301986694,1,-4,-1,-1,1,3,3,2,1
30.252308130264282,-2,-5,-2,0,-1,1,3,3,1
30.252312183380127,3,10,2,-1,0,-2,-2,-6,1
30.25936722755432,-5,-8,-4,-3,-2,-2,-4,-1,1
30.259371757507324,-7,-11,-6,-5,-2,-2,-4,-9,1
30.274948835372925,9,11,4,2,-1,-2,-1,3,1
30.27495312690735,-2,-5,-3,0,1,0,-1,-2,1
30.275980710983276,1,-3,0,-1,-2,-1,1,-4,1
30.275984525680542,4,5,1,-1,-3,-8,-8,-8,1
30.290435075759888,-4,-6,0,-2,1,1,2,0,1
30.290441751480103,-1,-5,-1,0,2,-1,2,2,1
30.296659469604492,2,6,-1,-1,-1,-1,-2,-3,1
30.296663999557495,0,-4,-7,-10,-11,-4,-4,-4,1
30.311808109283447,2,3,4,2,3,1,-2,-2,1
30.31181311607361,2,4,4,3,4,2,2,1,1
30.319175958633423,1,-2,1,2,4,1,3,2,1
30.319180250167847,-3,-9,-4,-4,-1,4,7,6,1
30.343040227890015,-2,3,-1,0,-1,-1,-4,-6,1
30.34304451942444,0,10,2,-1,-4,-7,-8,-7,1
30.34422779083252,-2,-1,0,2,2,0,2,0,1
30.344231843948364,-5,-3,-2,-1,-2,-4,-2,-6,1
30.349045753479004,-1,-4,-5,-6,-6,-6,-9,-8,1
30.349048852920532,3,-6,0,2,-1,3,7,6,1
30.356565475463867,-2,2,0,-1,-2,0,-5,-19,1
30.356568574905396,0,2,2,6,4,2,3,5,1
30.372026681900024,-2,-5,-4,-9,-6,-6,-9,-7,1
30.37203073501587,-2,-1,-1,-2,1,-5,-7,1,1
30.379292964935303,-2,-7,-2,-1,-3,1,-1,2,1
30.379297494888306,5,11,7,6,5,4,6,4,1
30.394948482513428,3,2,4,3,4,0,0,-1,1
30.39495301246643,-6,-5,-2,-1,0,1,-1,-4,1
30.395999670028687,0,-4,-10,-15,-11,-2,-3,-1,1
30.396003484725952,1,-1,1,2,1,1,2,4,1
30.4092435836792,-1,-1,1,3,-1,-4,-6,-10,1
30.409247875213623,0,2,-1,-1,1,4,6,3,1
30.41672682762146,-1,-10,-1,3,3,-2,-4,-10,1
30.416731595993042,2,9,0,-3,-2,0,-2,4,1
30.431653261184692,-4,-1,1,1,2,-1,2,2,1
30.43165683746338,-2,-3,-1,-1,-2,-2,-2,-2,1
30.439067602157593,1,-1,-1,2,1,0,-1,-3,1
30.43907117843628,-2,-3,-5,-4,-3,0,-4,-2,1
30.454954385757446,0,0,1,4,3,0,3,5,1
30.454959869384766,0,1,0,1,0,0,-4,1,1
30.456103801727295,1,2,-2,-4,-6,-1,5,10,1
30.45611000061035,-3,-1,-1,0,3,-3,-2,-6,1
30.469243049621582,-6,-11,-8,-9,-7,-3,-2,3,1
30.469248056411743,0,5,3,1,1,-3,-5,1,1
30.476868391036987,-2,2,2,3,3,2,2,0,1
30.476873636245728,2,3,1,2,0,1,3,0,1
30.491271495819092,-5,-5,-3,0,1,0,1,-2,1
30.491275548934937,-4,-5,-4,-8,-6,-2,-6,-12,1
30.49915885925293,-1,-1,-2,-5,-3,0,0,4,1
30.499162673950195,-1,-2,1,0,0,0,0,-3,1
30.514930248260498,4,5,5,5,3,1,3,5,1
30.5149347782135,-2,-6,-4,-2,0,3,5,0,1
30.515916347503662,3,9,2,0,1,-1,-2,7,1
30.51591968536377,4,-7,-2,-1,0,1,0,1,1
30.529458045959473,4,8,3,2,0,0,4,9,1
30.529462099075317,1,3,2,4,3,1,-2,-9,1
30.536693811416626,0,-3,-2,1,0,0,1,-2,1
30.53669786453247,-3,-5,-5,-5,-3,-2,-3,1,1
30.55169439315796,-1,2,1,0,1,3,1,4,1
30.551698684692383,3,-2,0,-1,-2,-2,0,-1,1
30.559208631515503,0,3,5,4,4,0,1,1,1
30.55921244621277,-5,2,0,2,0,-2,-3,-4,1
30.574795246124268,-4,-11,-12,-12,-11,-7,-6,-11,1
30.574799060821533,-4,0,-1,-3,0,-2,-3,-7,1
30.575770139694214,0,-1,0,-3,0,-3,-4,-4,1
30.575773239135742,2,2,7,7,8,4,6,3,1
30.589071035385132,0,1,1,1,1,3,2,0,1
30.58907437324524,-3,-6,-5,-8,-7,-5,-3,0,1
30.605218172073364,-5,-5,-1,0,1,1,0,-6,1
30.605223178863525,3,6,1,-1,-3,-3,-3,-6,1
30.62049174308777,0,3,3,8,11,9,13,15,1
30.62049674987793,0,-2,-3,-5,-5,-6,-12,-12,1
30.621560096740723,-2,-1,0,-2,-2,1,1,4,1
30.62156343460083,0,-4,-1,-2,-2,-2,-3,1,1
30.63499402999878,3,2,3,2,1,1,0,-3,1
30.634999752044678,-1,1,4,7,5,2,8,10,1
30.636130809783936,-3,-9,-9,-7,-4,-3,-3,-3,1
30.636136054992676,-2,7,-2,-7,-7,-3,-3,-1,1
30.649638175964355,5,2,2,2,0,-2,-6,-1,1
30.64964270591736,-2,0,-1,-3,-3,-3,0,1,1
30.656187295913696,2,1,0,2,1,-5,-2,1,1
30.656189441680908,-1,-11,-5,-2,1,2,5,-6,1
30.67173147201538,-1,8,2,0,-2,1,-4,-3,1
30.671735763549805,2,1,-2,-1,-1,1,3,6,1
30.679369688034058,-1,-1,0,3,0,0,-3,0,1
30.67937421798706,-2,-3,0,-2,0,-1,-1,0,1
30.694302082061768,-2,-3,-6,-10,-8,-5,-5,-7,1
30.694307565689087,3,1,-1,1,0,-1,-2,1,1
30.703020095825195,-2,-1,0,2,-1,1,3,2,1
30.70302391052246,-1,-1,1,3,1,1,0,1,1
30.709266185760498,-5,-9,-3,-1,-1,-2,1,-5,1
30.70927119255066,4,12,1,-3,-4,-3,-2,3,1
30.716750383377075,2,3,1,1,0,2,-3,-9,1
30.71675443649292,-1,-4,-4,-2,-2,1,-1,0,1
30.73373007774353,-4,-3,-2,-2,-3,-2,1,0,1
30.733734369277954,-3,-7,-3,-3,0,0,-4,-1,1
30.73934841156006,1,-1,0,-4,-2,1,1,0,1
30.739352703094482,-1,2,3,2,-1,-2,-5,-6,1
30.754337072372437,3,-4,-3,-1,0,-1,1,1,1
30.75434136390686,1,0,3,5,1,-1,0,3,1
30.76267910003662,-1,-2,-5,-5,-3,0,-2,-2,1
30.762683391571045,1,-1,0,3,1,0,3,7,1
30.769092082977295,1,1,-2,-3,-1,0,1,3,1
30.76909613609314,-2,-4,-4,-6,-6,0,2,-3,1
30.776769876480103,1,0,2,1,-1,-4,-4,4,1
30.776774406433105,-8,-1,1,1,1,1,3,-13,1
30.791948556900024,-3,1,-1,0,0,-1,-2,1,1
30.791953563690186,0,-2,2,2,5,5,6,7,1
30.8008394241333,-5,-12,-6,-4,-5,-3,-2,-5,1
30.80084538459778,7,14,4,2,-1,-2,-5,-4,1
30.81428813934326,-2,-3,-2,-3,-2,2,2,0,1
30.814292907714844,-5,-2,-2,-3,-1,0,0,-1,1
30.822543382644653,4,4,3,4,3,1,4,4,1
30.822547912597656,-2,-5,-5,-4,-3,0,2,0,1
30.829381942749023,1,0,-1,-3,-5,-3,-4,1,1
30.829386472702026,-2,-2,-1,1,3,1,2,-3,1
30.84497380256653,1,3,3,2,1,2,5,4,1
30.844979286193848,4,0,2,4,5,3,3,6,1
30.851852655410767,-5,-4,-3,-4,-3,-1,-1,-4,1
30.85185742378235,0,0,-3,-2,-2,-2,-2,0,1
30.859254837036133,-2,2,2,2,2,2,-2,2,1
30.859259128570557,2,-2,-2,-3,-4,-2,5,9,1
30.87438440322876,-2,-6,1,2,1,1,-2,-7,1
30.874391078948975,-1,-2,-1,0,-2,-2,-2,-6,1
30.882476806640625,-2,0,-1,-2,0,1,4,3,1
30.882481336593628,-2,-8,-7,-6,-6,-5,-10,-9,1
30.897908926010132,6,10,5,3,4,0,-1,0,1
30.897914171218872,0,-2,-1,-2,-1,1,1,1,1
30.898869276046753,4,4,0,1,1,0,3,1,1
30.89887261390686,-4,-8,-2,-4,-4,-6,-11,-15,1
30.912309885025024,-3,-4,-6,-3,-1,1,0,-2,1
30.912317991256714,2,4,3,5,4,2,3,5,1
30.91927981376648,-1,-3,-4,-5,-2,-2,-6,-6,1
30.91928482055664,3,2,2,3,2,0,3,7,1
30.93438220024109,0,0,-3,-6,-6,-2,-5,-9,1
30.934387683868408,-1,0,1,1,0,-2,-4,2,1
30.942496061325073,0,-3,-2,0,-1,2,1,-6,1
30.942500591278076,0,0,-3,-4,-1,-1,-3,2,1
30.958220720291138,1,-1,0,2,0,-4,-2,4,1
30.958224773406982,-1,-6,-4,-3,-2,-1,-2,-5,1
30.959170818328857,8,6,5,5,4,0,1,3,1
30.959174156188965,-9,-8,-7,-7,-5,-3,-6,-8,1
30.97162437438965,-5,-2,0,-1,-2,-4,-5,-8,1
30.971628665924072,0,-3,-1,-2,0,1,0,-1,1
30.979339599609375,-2,-2,2,2,2,0,3,2,1
30.979344129562378,-1,1,-1,0,0,2,2,6,1
30.994293212890625,2,-11,-4,-3,-5,-5,-6,-5,1
30.99429726600647,-2,8,5,2,2,0,0,-3,1
31.002403736114502,2,5,-2,-3,-2,-2,2,2,1
31.002407550811768,2,3,2,3,4,1,1,1,1
31.01814842224121,2,6,3,3,2,0,1,7,1
31.01815414428711,-2,-10,-8,-7,-9,-7,-5,-9,1
31.019515991210938,0,-1,-2,-4,-2,-1,-2,1,1
31.01952052116394,-1,-1,1,0,2,1,2,2,1
31.033170461654663,1,1,-1,-1,0,1,1,0,1
31.03317427635193,1,1,-2,0,-1,1,2,1,1
31.03990340232849,-4,-1,1,2,-1,-3,-4,-7,1
31.039909601211548,-2,-1,-1,4,1,0,0,-1,1
31.054116010665894,-9,-5,-4,-4,-4,-1,0,-11,1
31.05411982536316,-5,-4,0,-3,2,-1,-2,0,1
31.062537670135498,-3,-11,-5,-6,-5,-6,-4,-1,1
31.062541723251343,3,11,6,2,3,1,2,-1,1
31.077373266220093,2,7,1,5,7,5,9,3,1
31.077377796173096,-2,-3,-3,-4,-4,-3,-4,-1,1
31.078441381454468,-2,-2,-2,-1,0,-2,-1,-2,1
31.078445434570312,1,1,-1,-3,-3,-2,-7,-11,1
31.091687440872192,2,-4,1,1,3,1,3,7,1
31.091691732406616,-1,0,2,3,2,0,-1,2,1
31.09921669960022,-2,0,-1,-2,0,2,-2,-3,1
31.09922194480896,3,-5,-7,-5,-5,1,0,4,1
31.114729166030884,2,6,3,2,1,0,4,-2,1
31.114736318588257,-1,0,-1,3,4,4,2,-3,1
31.121928215026855,-3,-2,-3,-2,-4,-1,-2,2,1
31.121931076049805,3,3,3,4,3,-1,0,3,1
31.137332439422607,-6,-7,-4,-7,-4,1,-4,-1,1
31.13733696937561,3,-8,-4,-1,-3,-4,0,-11,1
31.138240337371826,0,9,3,2,4,4,4,3,1
31.138242721557617,-4,-9,-4,-5,-1,0,3,-2,1
31.151654481887817,3,4,4,2,-1,-4,-3,5,1
31.15165901184082,0,-1,-1,2,4,1,0,-4,1
31.159215211868286,1,-6,-4,-6,-6,-6,-10,-4,1
31.15921926498413,0,0,1,0,0,2,5,1,1
31.176111698150635,-3,-3,-3,-4,0,1,-3,-3,1
31.176116466522217,-1,2,3,3,-1,1,-2,6,1
31.182498693466187,-3,-3,-3,-3,-4,-2,-1,-2,1
31.18250298500061,2,1,-1,-1,-2,0,1,7,1
31.197361946105957,-3,-3,2,6,2,-2,-5,-27,1
31.1973659992218,-6,-4,-7,-13,-10,-4,-6,-4,1
31.19832992553711,2,-2,-1,1,1,0,-2,-4,1
31.19833254814148,3,7,1,0,-1,-2,-3,-4,1
31.2121639251709,0,-3,0,1,0,-2,-2,6,1
31.212170124053955,-2,2,3,4,4,0,1,2,1
31.219053983688354,-1,-1,0,1,1,4,3,-2,1
31.219057321548462,-4,-5,-4,-5,-3,-2,-3,-5,1
31.23381757736206,2,-1,0,-3,-5,-4,-1,3,1
31.233821153640747,0,2,2,0,3,0,2,6,1
31.24211359024048,6,3,2,0,-1,1,4,3,1
31.24211621284485,-1,-4,0,-2,-1,0,-1,3,1
31.2570219039917,2,1,0,1,0,0,-1,4,1
31.25702452659607,3,2,1,5,3,2,3,1,1
31.25764012336731,-3,-6,-4,-2,0,0,1,1,1
31.257641792297363,-4,-5,-1,1,0,-3,0,-2,1
31.271228313446045,6,5,1,-1,-3,-3,2,-4,1
31.271231174468994,-6,-4,-7,-5,-3,-1,-1,3,1
31.27940011024475,2,-2,-2,-1,-2,-5,-11,-10,1
31.27940583229065,-4,-1,2,1,0,-5,-4,4,1
31.294631719589233,0,-3,0,1,3,2,3,4,1
31.294636964797974,3,1,2,4,2,2,4,-2,1
31.302529335021973,0,3,-2,-2,1,1,3,-2,1
31.302534103393555,-6,-7,-7,-7,-7,-4,-9,-4,1
31.325709342956543,2,5,4,2,2,0,-2,5,1
31.325714111328125,3,3,2,-2,-2,-3,-1,1,1
31.326685428619385,-4,-1,-1,1,-2,-1,0,-2,1
31.32668972015381,-2,-1,-1,-2,-1,-2,-1,-2,1
31.331801414489746,-3,-4,-4,-4,1,3,1,2,1
31.33180594444275,-5,2,-2,-1,-5,-5,-6,-15,1
31.339228868484497,-3,-3,0,1,0,0,2,3,1
31.339235067367554,0,-1,-2,2,1,0,4,-5,1
31.35442590713501,-1,4,-3,-5,-5,-5,-11,1,1
31.35443115234375,-2,-7,0,-3,-1,-1,-3,-2,1
31.362343549728394,0,5,3,2,1,1,3,6,1
31.36234760284424,1,1,-3,-1,-4,-2,-4,-16,1
31.37726378440857,0,-2,1,5,4,2,3,4,1
31.377268075942993,-3,-3,-6,-7,-6,-3,-2,-3,1
31.378230094909668,-1,-2,-2,-1,-3,-4,-5,-5,1
31.378233194351196,-1,-2,1,2,1,2,3,4,1
31.39173126220703,3,3,1,2,1,4,0,-3,1
31.39173650741577,1,-2,2,4,1,-2,6,9,1
31.39914321899414,-1,4,-1,-1,-1,-1,-3,0,1
31.399147510528564,1,-1,-1,-3,-2,1,2,1,1
31.4142324924469,1,0,2,3,0,0,3,4,1
31.41423726081848,1,-1,-2,-1,0,0,-3,-1,1
31.430221557617188,-1,-2,0,-1,-1,3,5,4,1
31.43022608757019,1,3,1,5,4,1,0,7,1
31.43766188621521,-7,-8,-6,-10,-7,-4,-5,-3,1
31.43766736984253,2,-1,2,2,0,1,1,1,1
31.43909764289856,0,1,-1,0,-2,-5,-5,-8,1
31.43910312652588,-6,-4,-2,0,1,1,0,-6,1
31.453675270080566,-2,0,1,1,3,1,4,4,1
31.45368003845215,2,2,-2,-2,0,3,0,-1,1
31.45926833152771,-3,-3,-2,-5,-3,-3,-6,-4,1
31.459273099899292,0,-4,1,2,-2,-2,-1,1,1
31.474308252334595,2,3,-2,2,3,2,6,3,1
31.474313259124756,-1,-2,-4,-8,-6,-4,-8,-6,1
31.48243284225464,-2,-7,1,3,2,2,2,0,1
31.482437133789062,2,6,3,0,0,1,-1,1,1
31.49740433692932,2,-1,-2,-2,-2,-2,-1,0,1
31.497409105300903,0,3,0,4,1,0,6,3,1
31.498929738998413,-4,-1,-1,-3,0,-2,-6,-6,1
31.4989333152771,2,-3,-2,1,0,-1,-2,1,1
31.512174606323242,3,7,4,2,1,-1,-3,0,1
31.5121808052063,-1,-3,-2,-2,-1,0,1,2,1
31.519163608551025,1,-1,-1,-1,-4,0,-2,-9,1
31.51916766166687,-3,0,-3,-5,-3,-1,-3,1,1
31.535247564315796,-5,-8,-3,-3,-1,1,1,-4,1
31.535253763198853,1,-3,0,1,1,-1,-2,-1,1
31.54204559326172,-1,6,4,3,3,4,8,2,1
31.542048692703247,-2,-2,-1,-2,-1,1,-3,1,1
31.557024002075195,4,-2,-6,-9,-8,-8,-12,-17,1
31.557027101516724,0,0,3,4,2,1,1,2,1
31.557711124420166,0,-4,-3,-3,-2,-2,-3,2,1
31.557713270187378,4,3,2,3,2,3,6,5,1
31.57299041748047,-2,-6,-3,-3,-3,-2,-3,5,1
31.572994470596313,-5,2,2,4,0,-3,-6,-17,1
31.57885980606079,1,1,1,0,0,-2,0,1,1
31.57886266708374,4,0,-2,-1,-2,-3,-2,0,1
31.59471821784973,-3,-2,-1,0,-1,0,0,-3,1
31.59472417831421,-2,-9,-8,-14,-10,-6,-11,-4,1
31.602436304092407,0,2,1,4,1,1,3,7,1
31.602440118789673,-2,-2,0,0,1,-1,-3,-6,1
31.617438793182373,0,1,1,7,4,5,5,2,1
31.617442846298218,-1,-2,-4,-1,2,6,9,4,1
31.618518352508545,5,-5,-4,-3,-5,-6,-4,-4,1
31.61852264404297,-4,4,2,0,-1,-1,-1,1,1
31.633543491363525,-1,0,2,1,1,-2,-1,3,1
31.63354802131653,2,-2,2,1,2,0,4,7,1
31.639291048049927,0,6,1,2,2,0,2,2,1
31.639296770095825,-2,-2,-4,-3,-3,1,-1,-6,1
31.6539249420166,-2,1,-3,-7,-7,-3,-4,-3,1
31.65392756462097,0,-2,-1,-3,-5,-2,-5,0,1
31.662466764450073,1,-3,1,-1,-1,-1,1,1,1
31.662473440170288,1,0,1,1,0,-4,-6,-10,1
31.67784833908081,-3,-2,-2,2,-2,0,1,-2,1
31.677852869033813,2,-1,0,-2,-3,-5,-6,2,1
31.685259580612183,2,4,1,3,3,4,4,0,1
31.685263872146606,-2,-6,-5,-7,-4,0,0,-3,1
31.691789865493774,1,1,1,1,1,-1,1,-1,1
31.691794633865356,2,7,4,7,5,1,1,0,1
31.699301958084106,-1,-13,-8,-7,-3,-3,3,-5,1
31.69930648803711,-5,3,1,0,0,2,1,2,1
31.714393377304077,3,3,2,2,4,3,2,3,1
31.714398622512817,-3,-5,-3,1,2,2,3,-2,1
31.73057532310486,-1,6,0,0,-1,-2,2,-2,1
31.730581045150757,1,-5,-5,-4,-5,-6,-4,0,1
31.73673439025879,-3,-5,-1,-3,-3,-3,0,-3,1
31.736738681793213,1,4,2,3,1,3,2,4,1
31.744954109191895,-1,-3,-2,-1,0,0,-2,-3,1
31.744958639144897,4,8,4,3,2,0,1,1,1
31.751643180847168,-1,1,-1,0,1,-1,-3,3,1
31.751646995544434,2,0,-3,-9,-6,-2,1,-2,1
31.759093761444092,-5,-3,-4,-4,-4,-4,-5,0,1
31.75909662246704,0,-3,-1,2,0,2,4,6,1
31.774084329605103,-1,-3,0,3,2,-2,0,-5,1
31.774088859558105,2,3,1,0,0,-2,-1,1,1
31.78156614303589,-3,-7,-3,-3,0,-2,-3,-2,1
31.781569719314575,3,2,2,0,0,2,-1,-5,1
31.796586990356445,1,0,1,1,1,0,3,2,1
31.79659080505371,0,-5,-5,-1,-1,3,3,-1,1
31.80625081062317,-3,2,-2,-3,-2,-3,-7,0,1
31.806257486343384,-2,-9,-4,0,-2,-1,1,2,1
31.819934606552124,5,9,3,3,0,2,1,-1,1
31.819939136505127,0,0,0,2,3,3,3,2,1
31.82105827331543,-7,-6,-3,-3,-7,-6,-6,-7,1
31.821062326431274,-3,-6,1,2,2,0,3,-2,1
31.834272146224976,0,10,1,-2,-2,-1,-1,-2,1
31.834277391433716,0,-1,0,-2,-1,0,0,1,1
31.84223747253418,3,5,0,0,1,3,3,0,1
31.842244148254395,0,-5,-1,0,-1,-5,-3,-3,1
31.857503175735474,-1,-4,-2,-2,1,2,6,8,1
31.857507705688477,0,2,1,0,-5,-9,-16,-2,1
31.865093231201172,0,0,-1,1,2,4,2,4,1
31.865098476409912,0,-2,-1,-2,-2,-1,1,-2,1
31.88018536567688,0,-6,-1,0,1,-1,-4,-1,1
31.88019037246704,-1,5,1,1,0,1,1,5,1
31.88261914253235,-2,-7,-2,-5,-2,-2,-1,2,1
31.882625341415405,-1,4,1,1,0,0,-1,3,1
31.893720149993896,-2,-3,-2,-2,-3,-3,-2,-7,1
31.893722772598267,0,0,1,1,2,-1,0,-3,1
31.902509450912476,1,0,0,-1,-1,-2,-3,-1,1
31.902514219284058,-2,-7,-2,-1,2,5,4,-6,1
31.916810035705566,-5,2,-4,-5,-3,0,-3,0,1
31.916826248168945,-3,-5,-1,-2,-3,1,1,-2,1
31.92503595352173,9,9,6,10,4,2,3,13,1
31.925041437149048,-1,1,-2,-5,-2,2,0,-3,1
31.940003871917725,1,-10,-1,1,2,-1,-4,-2,1
31.94000816345215,-3,1,-2,-6,-6,-2,3,0,1
31.94110131263733,-5,-3,-1,1,0,0,-1,-4,1
31.941105127334595,2,3,0,-1,0,-3,-1,8,1
31.954278707504272,0,-3,0,1,-4,-3,-3,-7,1
31.954283237457275,2,1,-1,-2,0,-1,-5,0,1
31.96254062652588,-2,-1,-1,-2,-1,-2,0,-1,1
31.96254563331604,1,1,2,1,0,-3,-2,-1,1
31.97655725479126,-3,1,1,1,5,2,7,5,1
31.976561069488525,-3,-6,-4,-6,-9,-8,-10,-3,1
31.99433922767639,2,-7,-2,3,5,5,6,0,1
31.994346618652344,7,17,0,-6,-8,-4,-6,5,1
32.008254528045654,-1,-4,0,0,0,-1,-2,5,1
32.00826072692871,1,4,3,6,5,4,4,-7,1
32.00978136062622,0,0,-1,-4,-4,-2,-3,-2,1
32.00978660583496,-2,-5,0,2,3,1,0,-3,1
32.01440501213074,-2,-2,-4,-4,-4,-5,-6,-3,1
32.0144100189209,2,1,1,1,0,0,3,4,1
32.02229714393616,-3,-1,0,-1,-1,-1,-2,-4,1
32.022301197052,-1,-4,-1,0,-1,-1,0,-2,1
32.036564350128174,1,4,1,2,-3,-2,0,0,1
32.03656792640686,-3,-5,-3,0,0,-1,-4,-12,1
32.045509815216064,-2,3,-2,-6,-6,-5,-3,-2,1
32.04551649093628,-1,-2,0,2,2,0,0,3,1
32.05985164642334,-5,0,-4,-4,-1,-1,-2,-2,1
32.05985617637634,-2,-4,-3,-1,-3,1,2,-4,1
32.06080460548401,7,5,2,2,2,0,3,2,1
32.060808181762695,-1,4,-1,-4,-1,-3,-5,-2,1
32.074230909347534,1,-4,0,3,0,2,3,2,1
32.074235916137695,4,7,3,2,4,0,-1,-1,1
32.08262777328491,-9,-9,-8,-9,-7,-2,-7,-4,1
32.08263373374939,0,-12,-4,0,-1,-1,0,2,1
32.10556960105896,7,17,6,3,1,0,5,10,1
32.10557436943054,-3,-4,-5,-4,-1,-1,-1,0,1
32.106746673583984,4,4,3,1,1,0,-3,-3,1
32.10675120353699,-2,-2,1,1,1,-2,1,4,1
32.11994433403015,-5,-7,-7,-7,-7,-4,-6,-9,1
32.11994981765747,-2,0,0,3,3,1,3,0,1
32.12179493904114,-1,-1,0,-1,-2,-3,-2,2,1
32.121801137924194,-1,1,-1,0,1,4,5,0,1
32.134297370910645,-2,-4,0,-2,-2,-2,-4,-5,1
32.13430213928223,0,4,3,2,2,0,4,8,1
32.14248824119568,0,-7,-2,0,1,2,2,-1,1
32.14249300956726,-2,0,-4,-5,-6,-2,-4,-1,1
32.15669918060303,0,-1,0,2,1,-1,-1,-3,1
32.15670347213745,-1,-2,1,1,-1,-1,-5,3,1
32.165064096450806,0,1,2,3,2,3,5,3,1
32.16506814956665,2,2,2,2,0,1,1,-2,1
32.17989134788513,-6,-11,-9,-7,-5,-3,-5,-6,1
32.1798951625824,3,1,0,-1,-1,1,4,4,1
32.180962324142456,-4,-5,-2,-1,-2,-3,-2,-4,1
32.18096661567688,1,14,2,2,1,0,3,2,1
32.194151401519775,-3,-5,-1,-1,-2,2,-1,-5,1
32.19415593147278,0,-3,-1,-2,-2,-1,0,-1,1
32.210125207901,-3,-2,-4,-2,-3,-3,-1,-4,1
32.21013069152832,0,1,2,1,1,0,-1,0,1
32.21668839454651,-2,-1,0,-2,0,-1,1,-1,1
32.21669244766235,-6,-5,-2,-1,-1,-1,2,-7,1
32.2247588634491,3,-1,4,4,5,2,2,-3,1
32.224761724472046,1,0,-1,1,-1,-1,-1,-3,1
32.23984336853027,-2,-1,-3,-4,-3,-5,-7,-3,1
32.23984932899475,1,-2,-1,-1,1,1,-1,0,1
32.24080491065979,-4,-2,-4,-3,-1,3,2,0,1
32.2408082485199,-1,-6,0,1,0,-1,-6,-3,1
32.25423979759216,4,2,2,-2,0,1,0,0,1
32.25424385070801,3,4,1,2,0,-3,-1,0,1
32.262442111968994,1,1,0,2,1,1,1,4,1
32.262446880340576,-4,-2,-3,-5,-2,-4,-1,-18,1
32.285829067230225,-1,0,-2,1,0,1,0,3,1
32.285834550857544,2,1,0,-2,-1,1,-1,0,1
32.28700351715088,-1,2,2,1,-1,-2,-2,4,1
32.287007093429565,-4,-2,-2,-3,-2,-2,-6,-7,1
32.30032420158386,8,2,2,6,5,1,1,3,1
32.300328731536865,-11,-12,-5,-6,-5,-4,-7,-6,1
32.30120921134949,2,8,1,-2,0,-1,-4,-5,1
32.30121207237244,-5,-1,0,-2,-3,-1,0,-2,1
32.31459379196167,2,1,2,1,1,0,3,-1,1
32.31459879875183,2,1,0,0,-2,-2,-2,-2,1
32.32230305671692,-2,-7,-1,0,0,0,-5,-1,1
32.32230877876282,-1,0,-1,0,-2,-4,3,3,1
32.33638572692871,11,7,5,3,1,2,2,6,1
32.33638858795166,1,4,-1,1,1,1,2,0,1
32.34523272514343,-2,-2,0,-3,-1,-1,0,-1,1
32.345239877700806,0,-4,-4,-4,-3,2,2,0,1
32.36004447937012,-4,-6,-3,-2,-3,-1,-1,-4,1
32.36004877090454,3,0,1,5,4,3,2,1,1
32.36100172996521,0,0,-3,-4,-5,-3,-5,-1,1
32.36100482940674,0,0,1,2,1,-1,-1,1,1
32.37412619590759,2,2,0,1,-1,-2,4,-3,1
32.37413024902344,-3,-4,-1,-4,-3,-3,-6,-4,1
32.38229584693909,-2,1,0,2,1,1,4,-3,1
32.38230228424072,-4,-11,-5,-6,-2,1,2,2,1
32.39671444892883,4,6,3,2,-1,-3,-3,-4,1
32.396719217300415,-2,2,-5,-5,-1,-1,1,7,1
32.40488028526306,-3,-3,0,-1,0,-2,0,-1,1
32.404884815216064,3,-4,-2,0,0,-1,-4,-5,1
32.4199275970459,1,3,2,1,2,4,9,16,1
32.41993236541748,-1,-4,0,2,0,-3,-6,-16,1
32.420870542526245,-1,2,1,1,1,-2,1,1,1
32.420873403549194,-1,-1,0,-1,1,1,3,7,1
32.43479800224304,-12,-11,-5,-5,-4,-2,-8,-15,1
32.43480348587036,3,6,2,3,2,4,8,6,1
32.44197607040405,1,0,-3,-2,-1,1,-2,-1,1
32.44198131561279,0,1,0,2,1,-1,-1,-2,1
32.45675563812256,1,-1,1,0,1,-1,1,-5,1
32.45676064491272,-1,-4,-2,-3,-2,-1,1,2,1
32.46509337425232,2,5,-1,-4,-4,-2,-3,1,1
32.46509790420532,-2,-2,1,2,0,1,1,0,1
32.48069357872009,-2,-3,-2,-2,0,1,-3,-2,1
32.480700969696045,3,0,2,3,2,-1,-1,2,1
32.48223567008972,-4,-2,-2,0,-1,0,1,-2,1
32.48227095603943,-2,0,1,0,0,-3,-3,1,1
32.49415683746338,-2,-1,-2,-6,-4,-2,0,0,1
32.494160890579224,-1,-3,-1,-1,-1,3,4,-3,1
32.50183820724487,-1,-2,0,-1,-4,-1,1,-1,1
32.50184392929077,0,-10,-4,-2,-3,-3,-9,-1,1
32.51650381088257,-3,10,1,-1,0,-3,1,13,1
32.51650667190552,4,8,4,2,1,1,-2,3,1
32.52534770965576,-1,-5,-5,-5,-3,-2,-1,-2,1
32.52535367012024,-1,-1,-1,-2,0,2,0,5,1
32.54002070426941,4,-6,-3,2,1,-2,3,-1,1
32.54002523422241,-2,2,0,-2,-1,-3,-7,-4,1
32.541003465652466,-8,-6,-3,-3,-4,-2,-4,-4,1
32.54100680351257,1,2,0,1,0,-3,0,-3,1
32.562586545944214,1,-2,0,1,-1,2,1,2,1
32.562591552734375,-5,-2,-3,-1,0,-1,1,-5,1
32.56365132331848,-1,-5,-1,-4,-4,-4,-3,-3,1
32.56365633010864,-1,2,1,2,1,3,5,-3,1
32.57668328285217,-3,-2,-2,-4,-2,1,-4,-5,1
32.57668852806091,1,-3,-1,1,1,-3,1,3,1
32.58621573448181,4,5,4,5,5,3,2,-1,1
32.586220264434814,-3,-3,-6,-9,-7,-6,-8,-7,1
32.59930610656738,-5,-1,1,2,2,1,2,2,1
32.599310874938965,-1,-7,-7,-9,-8,0,-4,-6,1
32.60786199569702,-3,-9,-2,0,3,1,-3,4,1
32.60786700248718,8,17,7,2,-1,0,-3,-18,1
32.61427187919617,0,-7,-2,1,2,-1,0,-1,1
32.61427617073059,-3,9,2,0,-2,-3,1,0,1
32.621644258499146,-1,-1,-4,-3,-1,0,0,-6,1
32.62164807319641,0,-1,-2,-1,-4,0,0,5,1
32.636690855026245,0,-1,-2,-1,1,-2,-5,-5,1
32.63669514656067,1,-6,-1,0,-1,-1,2,-6,1
32.64493155479431,5,12,6,7,5,2,-1,0,1
32.644935607910156,-2,-3,-3,-4,-2,-1,1,2,1
32.659276723861694,0,-2,-2,-2,-3,1,1,-3,1
32.659281492233276,-2,-5,-3,-3,-1,1,-3,5,1
32.66770553588867,-5,-2,1,1,2,-2,1,-7,1
32.66771125793457,3,-3,0,2,4,2,5,8,1
32.68256735801697,1,8,2,-1,1,0,-1,-3,1
32.68257188796997,-1,-5,-3,0,-3,-1,-1,-2,1
32.68378472328186,2,1,-3,-3,-3,-1,-1,0,1
32.68378949165344,-3,-4,-1,0,-1,-1,-2,6,1
32.6970112323761,-5,-9,-5,-6,-7,-7,-13,-22,1
32.697017669677734,2,10,2,2,4,5,2,4,1
32.705217599868774,1,-1,-1,-1,-3,2,1,2,1
32.70522332191467,2,3,1,0,0,-3,-1,4,1
32.71953296661377,1,1,3,4,3,2,0,4,1
32.71953773498535,-7,-12,-9,-12,-8,-2,-3,-8,1
32.72767639160156,-2,2,0,1,-1,1,-4,-5,1
32.72768044471741,-5,-6,-1,-3,1,1,1,4,1
32.734386682510376,1,2,0,0,-2,1,2,5,1
32.73439359664917,2,-2,4,5,5,0,0,0,1
32.7417528629303,0,-8,-4,-5,0,0,0,5,1
32.7417573928833,0,15,3,1,2,-2,-6,5,1
32.75875520706177,1,-1,-1,-2,0,2,3,2,1
32.75876021385193,1,1,0,1,-1,0,1,3,1
32.764830350875854,1,0,3,2,0,-1,2,4,1
32.76483464241028,1,-6,-5,0,0,1,3,-2,1
32.77939558029175,-2,-2,-4,-5,-5,-2,-2,3,1
32.77940082550049,0,1,2,0,2,-2,-7,-10,1
32.787604331970215,2,3,3,1,0,1,2,-3,1
32.78760862350464,-3,-5,-3,0,0,-1,1,-2,1
32.80254054069519,-6,-13,-9,-9,-8,-3,-2,3,1
32.80254507064819,3,11,5,4,3,1,4,2,1
32.8035933971405,0,1,3,0,0,0,-1,-1,1
32.80359649658203,1,0,0,-2,-1,0,-4,-3,1
32.81678485870361,-1,-2,1,2,2,0,-3,-5,1
32.816789388656616,0,-7,-3,-2,-3,-4,2,10,1
32.82575607299805,1,0,3,3,4,2,2,2,1
32.82576107978821,-3,-1,-3,-5,-5,0,-3,-10,1
32.83974885940552,1,3,1,0,1,0,-1,0,1
32.83975315093994,0,-2,-2,0,2,0,1,-4,1
32.847360372543335,-2,1,-4,-4,-3,-4,-5,-5,1
32.84736514091492,-1,-2,-2,1,0,-1,1,-2,1
32.863872051239014,1,0,-2,-1,0,0,-1,-1,1
32.86387777328491,-2,-3,-2,-4,-4,-3,-4,-8,1
32.865294218063354,-1,-2,0,2,0,0,1,5,1
32.86530113220215,2,4,-1,-4,-4,-4,-4,-4,1
32.87676763534546,-2,4,3,3,1,2,-2,-15,1
32.87677216529846,0,-3,-3,-4,-1,2,0,3,1
32.88500094413757,0,-2,-1,0,0,-2,-4,-5,1
32.885005712509155,0,-4,2,1,0,-1,4,2,1
32.899415254592896,-1,1,2,0,1,2,1,-2,1
32.89942264556885,-2,-5,-2,-1,-2,-2,-3,0,1
32.907548666000366,-3,-7,-7,-6,-1,0,1,-6,1
32.90755319595337,0,-2,-1,-1,0,1,1,1,1
32.92256426811218,1,1,1,2,1,-2,-1,2,1
32.92256999015808,0,2,0,-2,-5,-3,-2,-1,1
32.923683643341064,-7,-7,-4,-5,-6,-3,-5,-6,1
32.92368793487549,1,8,4,7,5,4,3,8,1
32.936789989471436,1,-2,0,0,2,2,2,2,1
32.93679428100586,4,-2,-2,-2,0,1,-1,-5,1
32.9449622631073,6,7,1,-1,-2,-2,-3,1,1
32.944966554641724,-4,-9,-1,-1,-2,-1,1,-2,1
32.95963716506958,-1,-4,-4,-2,1,1,-5,-5,1
32.95964288711548,3,6,2,3,1,1,2,11,1
32.967045307159424,0,1,0,1,2,1,3,0,1
32.96704888343811,-2,-1,-2,-3,-1,-4,-5,-6,1
32.98209023475647,-2,-6,-3,-4,-3,-3,-1,7,1
32.98209357261658,-2,-1,1,3,1,-1,2,-5,1
32.98349094390869,0,0,-1,0,0,1,4,0,1
32.98349595069885,7,1,2,1,0,2,6,2,1
32.99634337425232,0,1,2,2,2,0,1,-1,1
32.99634599685669,-3,-5,-8,-10,-8,-5,-11,-9,1
33.00439691543579,-2,4,2,3,1,1,5,2,1
33.00439929962158,2,-3,-1,-2,-1,1,-3,-2,1
33.01936364173889,-1,1,-1,-1,0,-1,-1,1,1
33.01936864852905,0,0,0,-2,-1,0,2,-7,1
33.02763819694519,4,3,4,4,3,2,4,15,1
33.027642250061035,-3,-7,-5,0,0,1,2,3,1
33.042434215545654,3,11,1,0,-1,-4,-3,-16,1
33.042438983917236,0,0,0,0,2,0,-1,2,1
33.043391704559326,-5,-4,-2,-5,-5,-3,-7,-3,1
33.04339575767517,0,1,1,1,2,-2,0,1,1
33.06564211845398,-2,-3,-2,-1,2,1,0,5,1
33.06564736366272,-4,-4,-3,2,0,0,0,0,1
33.06666111946106,0,-3,-5,-5,-4,-5,-8,-13,1
33.06666445732117,-1,-1,0,-2,-1,1,0,2,1
33.079559326171875,5,3,2,3,2,0,3,6,1
33.079564809799194,-1,-2,-1,-5,-2,0,2,3,1
33.087416887283325,-3,-3,-1,1,0,2,3,-1,1
33.08742141723633,-1,-2,-1,-2,-2,-1,-4,-5,1
33.103057622909546,-2,-5,0,-1,-2,-3,-4,0,1
33.10306406021118,4,-1,-2,-2,-2,4,5,5,1
33.10445523262024,0,-1,2,2,0,-3,-4,-3,1
33.104459285736084,-2,3,-6,-6,-5,-5,-8,-8,1
33.12785720825195,-4,-2,-1,-2,-3,1,4,-3,1
33.127861738204956,-1,-1,1,1,1,-2,-7,-1,1
33.12907123565674,-2,-5,-4,-6,-3,2,5,2,1
33.129077434539795,-1,4,3,3,2,-4,-10,-5,1
33.13945817947388,-5,-11,-3,-3,-2,0,2,3,1
33.13946461677551,2,0,0,2,2,-1,8,-3,1
33.1475727558136,1,16,2,0,-1,2,-1,3,1
33.147576570510864,-3,-7,-1,-1,-1,1,3,-1,1
33.1628851890564,-4,5,-1,-3,-3,-5,-5,-2,1
33.1628897190094,-1,-3,1,3,5,4,2,2,1
33.16390109062195,0,-3,-3,-3,-2,-3,-4,-1,1
33.16390419006348,-2,2,0,-2,-4,-3,-2,-1,1
33.176636934280396,-1,-6,-3,-4,-2,0,-1,-2,1
33.17664098739624,1,1,-1,3,0,1,-1,1,1
33.1851851940155,2,5,0,-1,0,-2,-3,-4,1
33.18519139289856,1,0,2,5,2,1,-4,0,1
33.1994788646698,-1,-4,-7,-6,-4,0,1,-3,1
33.19948482513428,-4,-2,-1,-3,-1,-3,-8,-2,1
33.2075457572937,4,0,1,2,1,1,1,-1,1
33.207550287246704,-4,-6,-3,-6,-2,1,2,-9,1
33.22247338294983,1,4,1,0,-4,-1,-2,6,1
33.22247767448425,-1,2,2,1,1,-2,-2,7,1
33.223559617996216,-3,-4,-2,3,2,0,1,-5,1
33.22356343269348,5,-2,1,4,3,3,10,1,1
33.23687767982483,-7,-3,-2,-1,0,1,-6,-6,1
33.23688244819641,-3,-11,-3,-2,-2,1,0,-2,1
33.24488091468811,6,15,7,6,3,0,0,-1,1
33.244884967803955,-2,-3,0,1,2,2,0,3,1
33.259209394454956,3,-3,0,0,1,0,3,-2,1
33.25921320915222,0,1,2,0,-1,-1,-1,-2,1
33.26791453361511,-7,-7,-8,-8,-6,-2,-2,-3,1
33.267918825149536,2,-1,1,1,0,-3,-4,0,1
33.28253650665283,4,4,2,2,1,0,1,1,1
33.282541275024414,-3,-1,-2,-1,0,0,-3,-3,1
33.28365349769592,-4,-9,-1,0,0,0,-1,-1,1
33.28365898132324,-3,7,-2,-3,-3,-3,-4,-1,1
33.29670572280884,1,-3,-3,-4,-4,-2,-6,-1,1
33.29671025276184,2,2,-1,2,1,2,2,-6,1
33.30500030517578,2,-4,-1,2,2,2,4,2,1
33.30500507354736,2,2,-2,-6,-8,-4,0,1,1
33.31976294517517,0,5,4,5,4,0,2,-8,1
33.31976890563965,-4,-3,-6,-10,-8,-4,-3,-2,1
33.327901124954224,1,0,0,1,1,-2,-1,3,1
33.32790493965149,1,-2,0,1,2,1,2,-5,1
33.3426718711853,0,3,4,7,3,0,7,-4,1
33.342676877975464,-3,-2,-6,-7,-5,-3,-6,0,1
33.34387254714966,-5,-20,-8,-6,-2,0,-1,-3,1
33.34387707710266,6,24,7,2,2,2,-1,3,1
33.35675263404846,0,-4,0,-2,-2,-2,-2,3,1
33.356756925582886,1,2,7,6,4,0,1,2,1
33.37259531021118,0,-5,-8,-8,-5,0,-4,-2,1
33.37260031700134,-4,-10,-3,1,2,2,4,4,1
33.37934231758118,-7,-6,-6,-8,-6,-5,-8,-13,1
33.37934756278992,2,5,3,1,-1,1,1,0,1
33.39460897445679,4,3,3,3,1,0,3,-1,1
33.394612073898315,-1,-1,-1,-1,-1,-2,-3,3,1
33.40120315551758,0,4,0,0,0,3,3,5,1
33.40120577812195,-5,-8,-3,-1,0,-2,-3,-4,1
33.410887479782104,-1,2,1,-3,-2,0,-1,0,1
33.41089081764221,-2,-4,-2,2,2,-2,-4,-1,1
33.41659712791443,3,2,2,0,-3,-1,2,15,1
33.41660022735596,2,3,-1,-1,-3,-2,-1,-2,1
33.426934480667114,0,4,2,1,0,0,2,3,1
33.4269380569458,-3,-11,-7,-2,-2,-1,0,0,1
33.43928265571594,-1,2,-1,-1,-1,1,-1,-1,1
33.43928933143616,-1,2,1,2,2,-1,0,5,1
33.448742151260376,-3,-5,-1,1,-2,-4,-3,-2,1
33.4487464427948,-4,3,0,0,0,0,4,-10,1
33.46213388442993,-6,-8,-3,-2,-2,-1,-2,-5,1
33.46213936805725,-2,-5,-5,-7,-7,-2,-3,-5,1
33.472647190093994,-4,-2,-2,-2,0,1,-2,-6,1
33.472652196884155,1,-10,-1,0,0,1,1,2,1
33.477930545806885,7,15,2,1,1,2,-1,4,1
33.47793650627136,-6,-3,-3,1,0,1,-1,-8,1
33.48676633834839,6,1,-1,-4,-3,-3,3,7,1
33.48677086830139,-1,1,2,1,1,-2,-5,-3,1
33.499181032180786,0,-3,-1,0,1,-2,-2,1,1
33.49918532371521,0,-5,-1,1,0,2,3,2,1
33.51762866973877,-1,-1,0,2,-1,3,1,0,1
33.51763653755188,3,12,4,-1,-2,-3,-6,-3,1
33.52189373970032,0,-3,2,1,0,-3,2,-2,1
33.52189874649048,-1,-1,-3,-4,-2,-2,-5,1,1
33.53102445602417,1,1,1,0,0,-1,1,2,1
33.531028270721436,-3,-2,-2,-4,-3,-3,-5,-2,1
33.536738872528076,3,-3,-2,1,1,2,1,0,1
33.53674507141113,-1,1,2,2,3,0,1,-1,1
33.54785943031311,1,5,0,-4,-3,-6,-9,-1,1
33.54786539077759,-5,-6,-2,-2,2,2,2,-1,1
33.560027837753296,2,-1,-1,-1,0,2,-1,4,1
33.56003427505493,4,-3,2,1,2,0,0,1,1
33.56951308250427,2,12,5,4,1,2,2,1,1
33.56951856613159,-1,-6,-3,0,-1,-2,-2,-4,1
33.58156108856201,-2,-4,-1,-3,-2,-2,0,6,1
33.58156490325928,1,-2,0,-2,-1,1,0,2,1
33.59171724319458,1,1,0,6,4,2,4,3,1
33.59172224998474,-3,-2,-4,-2,-3,0,1,0,1
33.59683537483215,1,-6,-4,-1,-2,-3,-3,-5,1
33.596840143203735,3,11,4,0,1,0,0,0,1
33.606125831604004,-3,-6,-1,-1,-4,-1,-1,-5,1
33.606130838394165,0,2,-1,0,-2,-1,-3,0,1
33.61926078796387,-4,-7,-3,-6,-3,0,-1,-4,1
33.61926484107971,1,-2,-1,-2,-1,-1,3,-1,1
33.62868595123291,-2,-2,-1,-2,0,1,0,-2,1
33.6286895275116,4,2,2,1,2,0,-1,0,1
33.641873836517334,-4,-3,2,4,3,1,-2,-4,1
33.6418776512146,2,6,2,5,1,-3,0,2,1
33.6511287689209,-2,-5,-4,-2,-4,-3,-2,-2,1
33.65113306045532,-1,1,-2,-6,-5,-4,-6,-4,1
33.65661573410034,-7,-10,-4,-2,0,2,6,-4,1
33.65661835670471,3,12,3,-1,-1,-4,-15,-16,1
33.68177676200867,-5,-6,0,0,-1,1,5,7,1
33.68178081512451,0,2,2,4,4,0,0,4,1
33.68271827697754,-2,2,-2,-7,-5,-3,-3,-2,1
33.68272066116333,0,-4,-1,3,2,1,3,2,1
33.68920087814331,0,1,-2,-1,-2,-1,-8,-10,1
33.68920612335205,-4,-5,-1,-1,-1,2,-2,0,1
33.70193862915039,0,1,-3,0,0,-1,0,1,1
33.70194411277771,-5,-7,-5,-4,-2,-2,-2,0,1
33.71173286437988,3,0,-1,-1,-3,-5,-5,-2,1
33.71173930168152,-2,-1,-4,-3,-4,0,1,0,1
33.725589752197266,1,3,3,3,2,-2,0,0,1
33.72559428215027,-1,-4,-1,-1,-2,2,4,2,1
33.72817134857178,0,1,1,1,3,2,3,-1,1
33.72817659378052,0,-7,-4,-6,-7,-2,-2,-3,1
33.739585161209106,-1,5,3,1,-2,-3,-1,-3,1
33.73959040641785,0,-1,0,1,2,-1,1,-1,1
33.74851059913635,-4,-2,-3,-2,-1,0,-3,-10,1
33.748515367507935,4,3,3,2,1,2,4,3,1
33.761507749557495,3,9,1,1,2,-1,-5,1,1
33.761510610580444,-3,-2,-2,0,0,-1,0,2,1
33.770325899124146,1,2,3,2,1,1,0,0,1
33.77032923698425,-3,-5,-6,-7,-6,-3,-3,-5,1
33.793132066726685,1,-6,-1,-1,-1,-2,-1,-1,1
33.79313683509827,0,0,-2,1,1,2,4,4,1
33.79555010795593,2,-3,1,2,3,2,-2,0,1
33.79555416107178,7,11,3,2,0,-3,4,2,1
33.808345079422,-6,-7,-7,-8,-4,2,0,0,1
33.80834984779358,-2,-5,-1,-3,-1,0,-3,-3,1
33.811413526535034,-2,-4,-4,-5,-5,-3,-1,-3,1
33.811418294906616,3,2,5,7,4,1,-1,1,1
33.82192277908325,1,-1,0,4,3,3,2,3,1
33.82192826271057,1,-4,-1,0,-1,2,4,4,1
33.831031799316406,-5,4,-1,-4,-4,-5,-7,-3,1
33.83103632926941,-2,-7,0,1,0,-3,3,-1,1
33.84561610221863,2,1,0,-3,-1,2,1,0,1
33.84562087059021,-3,-9,-2,-2,-4,-2,-4,-2,1
33.84767436981201,1,9,4,4,2,2,4,1,1
33.8476779460907,-2,0,2,3,5,0,0,-3,1
33.859212160110474,-6,-9,-12,-15,-15,-8,-8,-9,1
33.85921669006348,-2,0,-1,1,-1,-1,2,2,1
33.870126247406006,1,-1,-2,-3,-1,1,0,-2,1
33.87013530731201,0,1,1,1,0,2,-2,2,1
33.882349491119385,4,2,5,9,8,2,6,0,1
33.8823561668396,-4,3,-5,-8,-7,-5,-7,-8,1
33.891018867492676,-1,-3,-2,-2,-1,-1,1,0,1
33.89102292060852,1,-8,-3,-1,0,3,2,2,1
33.90581130981445,5,9,7,5,4,2,3,5,1
33.90581655502319,0,1,1,2,0,0,3,0,1
33.908050298690796,-1,-2,-2,-1,-1,1,0,5,1
33.908060789108276,-5,-3,-3,-3,-2,0,0,0,1
33.91934847831726,-1,1,4,5,2,-1,1,3,1
33.91935348510742,0,1,-1,-1,1,-1,-5,-9,1
33.92869472503662,-2,-1,0,-3,-6,-6,-1,-1,1
33.92870020866394,-10,-10,-4,-2,-2,-3,-5,-9,1
33.95168900489807,3,2,0,-2,-4,-5,-7,-4,1
33.95169711112976,1,4,3,5,3,2,2,3,1
33.954408168792725,1,-6,-4,2,3,2,4,2,1
33.95441246032715,-2,9,2,-3,-1,-1,-5,3,1
33.965596199035645,-4,-5,-2,-3,-3,1,3,-6,1
33.96560049057007,-3,-3,0,-1,-2,-2,0,-1,1
33.96807026863098,0,-5,-3,0,-1,0,1,0,1
33.968074798583984,2,2,1,2,-2,-3,1,-3,1
33.97927379608154,2,0,-2,1,1,3,5,-1,1
33.97927904129028,-1,0,-4,-3,-3,1,1,0,1
33.98929286003113,-2,-3,-1,-1,-1,-1,-4,1,1
33.98929738998413,2,-4,-2,-1,0,4,4,4,1
34.001424074172974,3,14,6,7,1,-3,-5,-10,1
34.001429319381714,-5,-10,-5,-6,-3,0,3,8,1
34.01024317741394,-1,-2,1,4,4,0,-3,-5,1
34.01024556159973,5,0,-3,-6,-3,-6,-6,1,1
34.02568531036377,-3,-2,0,1,1,1,-2,2,1
34.02569007873535,0,-4,-3,-4,-4,1,1,-1,1
34.027849197387695,-1,2,0,-1,1,3,6,1,1
34.0278525352478,2,2,0,2,-1,1,-1,-3,1
34.039764404296875,-1,-6,-2,0,-1,1,-1,-2,1
34.03976845741272,-2,5,0,0,1,0,0,-2,1
34.048588275909424,0,-3,-2,-3,-5,-3,-3,-1,1
34.04859113693237,-2,-3,-4,-1,1,-1,-2,-2,1
34.06202292442322,2,-4,0,-2,-4,-4,0,3,1
34.062029123306274,3,2,0,3,3,2,6,1,1
34.0702850818634,3,7,0,-2,-4,-3,-10,-8,1
34.070287227630615,-1,-1,-1,-1,-1,-1,4,10,1
34.08521604537964,-4,-10,-5,-2,0,-1,-2,-1,1
34.08521842956543,1,0,3,0,1,-2,-1,6,1
34.08681607246399,-2,-4,-1,-1,-2,-1,1,3,1
34.08681774139404,0,0,0,-1,0,1,-1,-10,1
34.0987446308136,-4,0,0,2,4,1,3,2,1
34.09874701499939,1,-3,-2,-3,-3,-4,-5,-1,1
34.10863399505615,0,0,0,0,-1,1,1,1,1
34.108638286590576,2,1,2,2,-1,0,-1,-2,1
34.12180185317993,0,0,-3,-2,-1,-1,2,5,1
34.121806621551514,3,7,3,3,-2,-6,-8,-7,1
34.131572246551514,-8,-7,-5,-4,0,0,-3,-4,1
34.131577491760254,2,-2,-4,-6,-3,0,-1,-1,1
34.15272283554077,0,5,2,3,1,1,-2,2,1
34.15272617340088,-1,-2,-2,-3,1,-1,-4,1,1
34.154258489608765,-1,1,2,3,1,1,1,3,1
34.15426182746887,-6,-5,-4,1,2,2,4,-1,1
34.15892004966736,0,-2,-3,-4,-4,-4,-6,-12,1
34.1589241027832,-2,0,0,0,0,2,5,3,1
34.16978931427002,-2,-2,-4,-5,-6,-6,-9,-16,1
34.16979455947876,-3,-3,0,3,3,2,2,-2,1
34.18184185028076,0,-3,-6,-8,-5,1,-1,-13,1
34.1818470954895,-3,-2,2,1,2,1,3,3,1
34.190900802612305,1,1,1,2,1,1,2,2,1
34.19090461730957,-2,0,0,0,-2,-4,0,1,1
34.20552086830139,-3,-2,-1,2,3,1,0,2,1
34.20552468299866,0,-5,-3,-4,-5,-1,-5,-3,1
34.20768332481384,4,1,0,-2,-1,2,2,3,1
34.20768666267395,1,-3,0,2,1,0,0,0,1
34.228156089782715,4,0,2,5,2,1,3,5,1
34.22816014289856,-2,1,-7,-3,-3,1,-1,-1,1
34.23042845726013,-3,-4,-3,-5,-3,-1,-1,2,1
34.23043251037598,-1,-1,1,-1,-2,0,0,-3,1
34.24173617362976,0,-2,0,-1,-1,-1,-3,1,1
34.241740226745605,3,7,6,6,4,-1,-1,5,1
34.2585027217865,-2,2,-2,-3,-3,-3,-2,-4,1
34.258506774902344,0,0,-1,-2,-1,0,4,6,1
34.26543354988098,-5,-5,-4,-5,1,0,-4,-4,1
34.26543641090393,-1,-5,-1,1,2,0,-1,-2,1
34.26733613014221,2,-2,-3,-1,1,0,2,0,1
34.26733922958374,2,5,1,3,0,-2,-5,1,1
34.27929425239563,1,1,0,1,1,1,2,2,1
34.279298543930054,-3,-3,-2,-5,-2,-2,-4,-4,1
34.28948998451233,0,-4,-2,-3,-3,-4,-5,-1,1
34.28949475288391,-3,0,-1,1,-2,-2,1,-2,1
34.301297187805176,4,8,4,3,2,1,3,5,1
34.301300287246704,0,-5,-2,-3,-3,-2,0,-4,1
34.31108379364014,-1,4,3,2,5,1,0,-2,1
34.3110876083374,-1,-4,0,1,2,2,0,8,1
34.3255877494812,-8,-4,-2,-5,-6,-7,-6,-12,1
34.32559156417847,2,-1,0,0,-2,1,4,-5,1
34.3282744884491,-2,-1,-3,-1,1,2,-1,-10,1
34.32827877998352,-1,-1,-3,-8,-10,-7,-9,-2,1
34.348081827163696,0,-3,-1,1,0,0,1,1,1
34.34808588027954,-1,1,0,1,2,1,2,0,1
34.35000514984131,0,-3,0,4,3,1,3,5,1
34.35000824928284,5,7,2,1,-1,-2,-2,-9,1
34.36180782318115,-3,0,-4,-3,-1,0,-2,5,1
34.361811876297,-1,-1,1,3,0,0,2,-1,1
34.37146520614624,2,2,2,2,2,2,2,6,1
34.3714714050293,-1,-12,-7,-9,-5,1,0,-3,1
34.38603854179382,3,4,0,1,-1,-4,-1,2,1
34.3860445022583,0,5,2,1,1,0,1,4,1
34.388500452041626,-4,-8,-3,-2,0,0,-1,-3,1
34.38850378990173,-1,3,1,2,2,0,-2,-1,1
34.39921188354492,1,-2,1,3,-1,3,1,2,1
34.399216175079346,-1,-1,-5,-3,-1,-3,-2,-3,1
34.40911340713501,1,0,2,-1,-4,-1,1,5,1
34.40911841392517,6,5,2,4,6,4,1,4,1
34.42178249359131,-1,-3,0,1,-1,-2,5,3,1
34.42178797721863,-3,-2,-3,-2,-1,0,0,-3,1
34.43107509613037,2,-3,-1,0,-1,0,-3,3,1
34.43107891082764,1,8,2,2,3,1,6,9,1
34.45305132865906,0,-5,0,0,1,-4,-4,2,1
34.45305585861206,1,0,0,-1,0,0,0,-1,1
34.455610513687134,-4,-1,-2,-5,-5,-4,-5,-7,1
34.455615758895874,-5,-7,-1,-1,-1,-1,-6,-7,1
34.45914030075073,0,0,-1,1,1,2,1,-2,1
34.45914387702942,-6,-5,-3,-5,-6,-5,-9,-8,1
34.46871757507324,1,1,2,1,0,1,2,-1,1
34.46872115135193,-5,-3,1,-12,0,-1,-2,-1,1
34.48168897628784,0,1,3,12,-3,-3,-1,1,1
34.48169279098511,2,-3,-4,-11,-1,-1,-3,-3,1
34.49021315574646,7,5,-6,-1,-1,5,6,-1,1
34.49021601676941,2,-1,-1,5,2,5,3,-2,1
34.505831241607666,-3,0,-2,-5,-5,-4,-9,-2,1
34.505836486816406,-4,-2,4,6,-1,-2,-4,3,1
34.51206016540527,-5,0,2,3,1,-1,-2,1,1
34.51206421852112,-2,-1,0,1,-3,-4,-2,-2,1
34.5193932056427,3,-1,0,-5,-1,1,0,-1,1
34.519397497177124,1,-1,-2,3,0,1,3,-2,1
34.5285964012146,0,1,0,-3,1,-2,-2,1,1
34.52859973907471,-1,-2,0,3,-4,-4,-4,-1,1
34.541767835617065,-1,-3,-3,-2,-1,0,1,-2,1
34.54177165031433,-1,-1,-2,-5,-5,-1,-2,-2,1
34.55132555961609,1,2,2,4,1,-1,2,0,1
34.55133080482483,2,2,-1,1,-2,-1,0,-1,1
34.56500220298767,-2,0,-1,-4,3,2,-2,1,1
34.56500697135925,1,1,-1,3,0,1,2,7,1
34.572458267211914,1,0,0,-2,-2,-1,-2,2,1
34.5724618434906,-3,-2,-3,1,0,0,1,3,1
34.57937455177307,1,2,0,0,1,-2,2,0,1
34.57937932014465,2,-3,-1,3,2,0,1,-1,1
34.588780879974365,-1,1,-1,-5,-3,-1,-2,2,1
34.58878493309021,-3,-2,-1,-2,-1,0,-3,-2,1
34.60231304168701,-1,-3,-5,-9,-6,-2,-1,-5,1
34.6023223400116,0,1,1,3,1,0,0,-3,1
34.61107659339905,-2,-2,1,2,-2,-3,-2,-3,1
34.61108136177063,-2,1,1,3,3,-1,0,-4,1
34.62497615814209,-3,-3,-4,-5,-5,0,3,-2,1
34.62498068809509,1,1,1,2,2,-1,-2,-2,1
34.63248372077942,-1,0,-3,-1,-1,-1,1,-1,1
34.63248801231384,-4,-7,-6,-4,-2,-1,-2,1,1
34.639262437820435,0,8,2,3,1,-1,-4,2,1
34.63926696777344,1,1,1,1,0,-4,-5,-5,1
34.649033069610596,-2,-1,-2,1,0,1,2,3,1
34.64903688430786,-4,-3,-1,0,0,2,4,-5,1
34.66180658340454,0,-4,-2,-4,-4,-2,-4,-2,1
34.661810874938965,-5,-4,1,-2,-1,-1,-1,0,1
34.67085099220276,1,6,4,5,4,-3,-1,4,1
34.67085385322571,0,-1,-3,-3,-1,-2,-3,-4,1
34.686443567276,-2,-5,-4,-5,-4,-1,-5,-4,1
34.686447858810425,-2,1,1,-1,-3,1,1,1,1
34.69163131713867,-3,-8,-3,-2,-2,-3,-3,-4,1
34.69163513183594,5,4,3,1,1,0,2,0,1
34.7081241607666,-2,-3,-2,0,2,-1,-1,1,1
34.708128213882446,0,0,-2,0,0,2,2,2,1
34.71050310134888,-2,-3,-3,-4,-3,-2,-2,-3,1
34.7105073928833,0,-1,-3,-3,-3,-2,-5,0,1
34.72178363800049,4,3,5,6,5,-1,4,-1,1
34.721787452697754,1,-3,1,1,1,0,0,-1,1
34.73131799697876,-1,6,0,0,2,5,3,9,1
34.731322288513184,-1,-3,0,1,-2,-3,-2,1,1
34.74487590789795,1,0,-3,-4,2,3,2,2,1
34.744879484176636,-2,-4,-3,-5,-3,-3,-3,-3,1
34.75173997879028,2,1,3,4,1,-3,1,-4,1
34.75174355506897,1,1,0,2,1,0,2,1,1
34.76853609085083,-3,-2,-2,-4,-4,-2,-7,-5,1
34.76854109764099,0,0,-2,0,-1,-2,-3,-3,1
34.77100920677185,-4,-5,0,-2,-3,-3,-1,-2,1
34.77101421356201,-2,2,6,7,2,-2,-2,-2,1
34.782185792922974,-1,-2,0,-3,-2,-2,2,-5,1
34.78218984603882,2,3,-2,-1,-3,1,4,1,1
34.79134821891785,-3,-4,-9,-12,-6,-3,-6,-10,1
34.79135298728943,1,-1,-1,-2,-2,-1,-2,1,1
34.80585527420044,0,0,4,5,3,6,2,3,1
34.80586004257202,5,1,-3,0,-3,-4,-3,-8,1
34.811240434646606,-7,-4,-1,-2,3,1,-4,4,1
34.811243295669556,-1,0,-1,0,0,-2,-1,-1,1
34.828409910202026,0,1,1,1,0,0,1,-2,1
34.828415393829346,-3,-3,2,5,-1,-1,-1,-2,1
34.83099436759949,5,-1,2,10,-1,0,0,-3,1
34.83099818229675,2,0,-4,-7,-2,4,2,-1,1
34.842522621154785,1,-2,-5,-4,-5,-1,1,-1,1
34.842527866363525,-5,-1,0,-4,-2,0,-3,-8,1
34.85098958015442,-1,1,3,4,2,2,4,3,1
34.85099387168884,-3,-5,-3,-2,-6,-1,-1,1,1
34.86489272117615,0,2,-1,-1,1,-2,-2,-1,1
34.86489701271057,0,1,-1,-4,2,0,2,5,1
34.87179684638977,3,2,2,0,0,1,2,-1,1
34.871800899505615,-4,-2,0,0,1,-2,-4,-2,1
34.888102531433105,0,-3,-2,-3,-2,-1,0,0,1
34.88810706138611,-4,-1,-4,0,2,-2,-1,-1,1
34.892404079437256,0,3,0,-3,-5,-7,-5,-9,1
34.89240908622742,1,1,-4,-3,1,3,5,0,1
34.90125870704651,-1,0,-1,-1,-2,-3,-1,2,1
34.90126132965088,-4,-3,0,0,1,0,-3,-1,1
34.912599325180054,0,-2,-1,-1,0,0,3,4,1
34.91260480880737,-5,-4,-9,-13,-11,-6,-13,-12,1
34.925105810165405,2,-1,2,2,2,-2,-1,4,1
34.92511034011841,7,6,3,2,1,1,7,11,1
34.931888580322266,-1,-3,-3,0,0,0,1,-1,1
34.93189454078674,0,1,0,4,2,-1,0,0,1
34.948129415512085,-2,-4,-3,-2,-1,0,-4,-3,1
34.94813394546509,2,-1,1,-1,-1,1,0,3,1
34.95088744163513,-3,-5,-4,-5,-3,0,-3,-10,1
34.95089244842529,4,1,3,1,1,-1,2,6,1
34.962499141693115,-4,-2,0,-1,-1,-4,-1,0,1
34.96250534057617,-2,-1,0,0,0,0,-2,-4,1
36.73555779457092,-1,1,3,10,1,1,-1,1,2
36.735562801361084,-2,-2,7,7,-1,-2,-1,0,2
36.73939895629883,0,1,-5,-11,-3,-2,0,2,2
36.73940324783325,0,-1,-7,-12,0,1,0,-2,2
36.74740147590637,-1,-3,-5,-9,-5,-1,-3,-4,2
36.747405767440796,0,1,2,7,3,2,2,1,2
36.75429368019104,-2,-3,2,8,0,-2,-3,0,2
36.754297971725464,1,0,3,4,1,-3,0,1,2
36.77099967002869,0,1,0,-2,-1,-1,0,-2,2
36.7710063457489,2,0,-2,-2,-2,0,-2,-2,2
36.77673935890198,2,-1,1,1,0,-1,-2,2,2
36.7767436504364,-3,-1,-3,-1,-2,-1,-2,-2,2
36.79280161857605,-2,-1,0,3,2,1,0,0,2
36.79280471801758,-2,-4,-7,-9,-7,-3,-1,-3,2
36.79436922073364,1,-1,-1,-4,-2,-2,-3,0,2
36.79437255859375,0,2,1,1,1,0,-1,-4,2
36.80716562271118,1,0,1,-1,-1,-2,1,0,2
36.80716919898987,5,4,0,3,2,-2,1,-2,2
36.81413006782532,-2,-2,-4,-2,-4,1,-2,-3,2
36.81413221359253,-1,-1,-2,1,-2,0,0,1,2
36.84653353691101,-3,0,4,3,1,-1,1,3,2
36.84653854370117,-1,-2,-1,-3,-1,1,2,0,2
36.84987807273865,1,-1,-1,-1,-4,1,-1,-2,2
36.849884271621704,0,0,1,-1,-2,-3,-1,-3,2
36.85315012931824,0,-1,-2,0,0,1,0,-2,2
36.85315489768982,-1,-3,-4,-3,-4,-1,-2,0,2
36.85537886619568,0,0,1,1,1,0,1,-1,2
36.8553831577301,-1,0,1,4,-1,2,0,-3,2
36.87433934211731,0,-1,-1,-3,-1,-1,-1,-2,2
36.87434244155884,-2,1,0,1,6,-3,-3,-5,2
36.8829140663147,2,1,0,1,-1,-1,4,0,2
36.882917165756226,0,-2,-1,-2,-1,0,-1,0,2
36.890563011169434,0,0,-2,-1,-3,-1,1,0,2
36.89056849479675,2,0,3,4,1,1,-1,0,2
36.91377592086792,-4,-4,-7,-7,-7,-3,-5,-3,2
36.91378116607666,0,-1,0,2,1,-1,-1,1,2
36.91472315788269,0,0,0,-3,0,-1,2,0,2
36.91472578048706,-1,-1,-2,-4,-5,1,-4,-3,2
36.91696739196777,1,1,2,3,3,0,-3,-1,2
36.91697096824646,-3,-2,-4,-1,-4,-2,1,5,2
36.92747473716736,0,-2,-2,-1,-2,-1,-4,-2,2
36.9274787902832,0,2,9,13,3,-1,3,1,2
36.941800594329834,-1,-1,-5,-10,-3,-1,0,-3,2
36.94180512428284,0,-1,-4,-11,-5,0,-3,-1,2
36.94999814033508,-1,0,0,0,2,2,1,0,2
36.95000195503235,-1,-2,0,0,1,0,-1,1,2
36.964311361312866,-1,-2,3,7,0,0,0,-1,2
36.96431541442871,1,0,3,5,2,-1,1,2,2
36.981958627700806,-3,-1,-2,-4,-4,0,-2,-3,2
36.98196220397949,-1,-1,-2,0,0,1,0,-1,2
36.98405146598816,-1,-1,-1,0,1,-2,-1,-1,2
36.984055042266846,0,-2,0,-2,-5,0,-1,-1,2
36.98845171928406,0,1,0,-1,3,1,-2,-1,2
36.98845720291138,0,-3,-5,-6,-4,-4,-4,-3,2
37.011107444763184,1,0,-1,1,2,1,3,2,2
37.01111316680908,-1,-1,0,0,0,-2,-1,-4,2
37.012410163879395,1,-1,-1,-2,-2,-2,-3,0,2
37.01241421699524,0,-1,-3,-2,-2,1,0,-1,2
37.016690731048584,1,0,1,1,-1,-1,0,-1,2
37.01669454574585,-2,-3,-1,-2,-1,-2,-3,-4,2
37.033151626586914,0,1,2,4,4,-2,1,0,2
37.033156394958496,1,1,0,-2,-1,-3,2,-2,2
37.03526449203491,-1,0,-1,1,-1,0,1,-1,2
37.035268783569336,-2,-2,-4,2,0,-2,-2,-2,2
37.047245025634766,1,-2,-2,-5,-1,-1,-2,-1,2
37.04724907875061,0,-1,-2,-7,-4,0,-2,-1,2
37.05640006065369,-1,0,5,4,-1,-1,-1,2,2
37.056405782699585,0,-3,-2,-5,0,-1,-2,-1,2
37.08580017089844,-1,-2,-5,-2,-1,0,-2,-2,2
37.0858051776886,-1,0,-1,-2,-1,0,-1,0,2
37.0878324508667,2,1,0,1,1,1,1,0,2
37.08783555030823,0,0,0,1,2,1,2,0,2
37.09313154220581,-1,-1,1,1,-2,-1,-2,0,2
37.093135595321655,1,0,0,3,-2,-3,0,-1,2
37.0950722694397,-3,-5,-5,-10,3,-2,-3,-3,2
37.095075607299805,2,2,0,-2,0,1,0,1,2
37.11564111709595,1,1,1,0,-4,0,-2,-3,2
37.11564588546753,-2,0,-1,0,-1,-1,-2,-3,2
37.11770009994507,1,0,-1,-3,-3,0,0,1,2
37.11770510673523,-2,-1,-2,-1,-3,-2,-1,-3,2
37.130006074905396,-1,-3,0,0,1,-2,-1,-2,2
37.13001036643982,1,-1,0,4,0,0,1,1,2
37.16155934333801,-2,-1,-2,2,0,-2,-3,-4,2
37.161564111709595,-3,-2,-2,-7,-3,0,0,-1,2
37.162806034088135,4,1,-1,-2,-2,-2,1,1,2
37.16280961036682,1,-1,0,1,1,2,1,-1,2
37.165324449539185,-1,-2,2,0,-3,0,0,1,2
37.16532826423645,1,1,1,4,-1,-2,0,3,2
37.166871547698975,-4,-2,-2,-4,-4,-2,-3,-1,2
37.16687488555908,0,0,-3,-3,1,-2,0,2,2
37.19066286087036,-1,0,0,1,0,0,2,-1,2
37.1906681060791,2,2,3,2,3,0,0,0,2
37.191733837127686,-1,-1,-1,0,-3,-1,-1,0,2
37.19173789024353,-1,-3,-2,-3,1,2,0,1,2
37.196685552597046,2,0,-1,-3,-5,-1,-1,0,2
37.19668960571289,1,-1,0,0,6,-1,0,0,2
37.221277713775635,-2,-1,-1,1,0,2,1,1,2
37.221282720565796,-2,0,-1,-3,-2,-1,1,0,2
37.223583698272705,-1,-1,-2,-3,-2,0,-1,-1,2
37.22358775138855,-2,-1,-1,1,-1,0,-2,-1,2
37.228564977645874,2,-2,-1,2,-1,-1,-2,0,2
37.22856950759888,-3,-1,-1,2,0,-1,0,1,2
37.2352614402771,-3,0,-1,-3,-1,-1,0,-1,2
37.23526382446289,-2,1,-5,-4,-1,1,-3,-2,2
37.258541107177734,2,1,-2,-1,-1,0,0,-2,2
37.25854706764221,2,0,2,2,1,-1,-1,-2,2
37.26062059402466,2,2,1,4,3,-1,1,1,2
37.260624408721924,-1,-2,-1,-3,-4,-2,-1,-1,2
37.289429664611816,-2,0,0,-1,-2,-3,-1,-1,2
37.28943610191345,-1,-4,-2,-3,-2,0,-2,-4,2
37.292635679244995,0,1,1,-1,0,-1,-1,-1,2
37.29264259338379,1,0,1,1,1,0,0,-2,2
37.29375123977661,0,1,0,0,2,2,2,-2,2
37.293755531311035,-2,-3,-5,-6,-3,-3,-3,-1,2
37.296327114105225,2,-3,-3,1,0,0,0,0,2
37.29633283615112,0,0,1,1,-1,-1,-1,0,2
37.310123920440674,-2,2,-1,-1,0,-2,1,1,2
37.310129165649414,-4,-1,0,-2,-2,1,-1,-4,2
37.32468628883362,-3,-1,-3,-4,-2,-1,-1,-1,2
37.32469201087952,-2,-3,-3,-3,-1,-2,-1,-2,2
37.33245921134949,-1,-2,-1,0,-1,-1,0,0,2
37.33246302604675,1,1,1,1,1,0,-3,0,2
37.339903354644775,5,3,4,5,6,0,0,-1,2
37.33990931510925,-2,-1,-1,-1,-3,0,1,-1,2
37.363667488098145,-5,-5,-6,-5,-5,-1,-2,-2,2
37.36368179321289,0,-1,-1,-2,-2,-2,1,-1,2
37.36581993103027,2,-3,-3,-5,-6,-1,0,-4,2
37.36582398414612,0,0,0,3,3,1,-1,0,2
37.36986494064331,-1,-1,1,-1,1,1,0,-2,2
37.369868993759155,0,-1,-2,0,-1,1,-1,1,2
37.37676000595093,0,2,0,0,0,0,1,1,2
37.37676382064819,0,-1,0,-1,-3,-1,-2,-1,2
37.401113748550415,0,0,0,0,-1,-2,1,-2,2
37.401118755340576,3,0,2,3,1,-1,-1,0,2
37.40325713157654,-2,-3,-1,-1,1,-2,0,-2,2
37.40326118469238,-2,-1,-1,-2,-2,0,-1,-1,2
37.406859397888184,1,-1,0,-1,2,-2,-1,-2,2
37.40686392784119,1,2,2,3,1,-1,0,0,2
37.41633081436157,-1,-1,-1,-1,-4,-1,-1,1,2
37.416335344314575,-1,-3,-2,0,-4,0,-2,-1,2
37.43060564994812,3,1,6,4,4,0,-1,2,2
37.43061017990112,-2,-3,-10,-11,-7,-3,-2,-3,2
37.43675446510315,-1,-1,-3,-4,0,-2,-2,0,2
37.436758518218994,2,2,2,-2,2,2,4,-3,2
37.4689462184906,-3,-3,-3,0,1,1,0,-3,2
37.46895098686218,0,-1,2,-2,-5,0,-2,-1,2
37.471102237701416,-1,-2,-3,-2,-5,-1,-1,-4,2
37.47110652923584,-1,1,0,0,0,-3,0,0,2
37.4720516204834,1,2,0,1,1,0,0,0,2
37.47205448150635,-1,0,0,4,2,0,1,2,2
37.47607684135437,-1,-1,-1,-2,1,-2,0,-1,2
37.47607898712158,-1,-1,2,0,0,-2,-4,-3,2
37.49837303161621,0,-1,-2,0,-3,-1,-1,0,2
37.49837851524353,-2,-1,0,2,1,-1,1,1,2
37.500903367996216,-1,-2,-1,-2,1,1,-1,-2,2
37.50090789794922,-1,-4,-3,-3,0,2,2,-3,2
37.5122652053833,1,1,-2,-6,-2,0,-2,2,2
37.51226878166199,1,0,1,-3,0,-3,1,-5,2
37.51885795593262,-2,0,0,-1,-3,0,-2,-2,2
37.518861293792725,-2,0,0,4,1,0,0,1,2
37.536953926086426,-1,-2,-4,-4,-4,0,0,0,2
37.53695845603943,4,-1,-2,1,5,3,0,0,2
37.53906202316284,-2,-1,3,2,2,1,0,1,2
37.53906512260437,0,1,0,0,-1,-4,-3,0,2
37.57482957839966,-1,0,0,-1,-2,-3,0,-2,2
37.574835777282715,0,0,0,1,-1,0,-1,-3,2
37.57730150222778,-2,-2,-2,-1,-3,-1,-1,3,2
37.57730460166931,0,-1,-2,-3,0,0,1,0,2
37.57825231552124,2,1,0,4,3,0,0,-2,2
37.57825565338135,-3,-3,-3,-5,-3,0,-2,-3,2
37.58092665672302,-1,-1,-2,-1,-3,-2,0,0,2
37.58093023300171,-2,-3,-1,-2,-4,-3,-1,0,2
37.60324001312256,0,-1,2,1,0,1,1,2,2
37.6032440662384,-2,2,0,5,0,1,-1,-1,2
37.60535287857056,-3,-4,-3,-6,1,1,-1,0,2
37.60535717010498,0,0,3,-3,2,0,-3,2,2
37.61004424095154,-1,0,-6,-4,-1,0,0,-1,2
37.61004900932312,-1,-1,-4,-1,0,0,-2,-1,2
37.61792325973511,3,3,3,7,1,-1,2,2,2
37.61792826652527,1,0,-2,0,-2,-1,-3,-2,2
37.64163851737976,-3,-1,-1,3,-2,-4,-3,-4,2
37.64164447784424,-1,1,2,-3,-1,-1,0,0,2
37.64405655860901,0,0,-3,-7,-2,-3,-4,-3,2
37.64406085014343,-1,-3,-2,1,1,3,0,-2,2
37.65678596496582,0,1,-2,-3,-1,-2,-2,-1,2
37.6567907333374,1,0,0,1,0,-2,0,-1,2
37.65917730331421,-1,-1,3,5,1,-1,-1,1,2
37.65918159484863,0,1,1,-1,-1,-2,1,2,2
37.678277015686035,-2,-2,-1,-1,-2,1,2,-3,2
37.67828178405762,-3,-5,-5,-9,-6,-4,-5,0,2
37.68104696273804,0,-1,-1,-2,-2,0,-1,-3,2
37.6810519695282,1,0,0,3,2,0,0,-1,2
37.69335889816284,1,0,1,3,0,0,0,4,2
37.693363428115845,1,2,3,2,-1,0,2,1,2
37.709022521972656,-3,-3,-5,-4,-5,0,0,-3,2
37.709028482437134,-5,-4,-6,-5,0,-3,-6,-2,2
37.71598434448242,3,-1,0,-2,3,0,0,-1,2
37.71598958969116,-1,-1,1,1,0,1,0,-1,2
37.71818661689758,1,0,2,4,-1,-1,0,1,2
37.71818971633911,-1,0,1,2,-3,-2,0,-1,2
37.73953127861023,-2,-3,-4,-2,-4,0,-1,-3,2
37.73953557014465,-5,-3,-2,-3,-2,-3,-4,-4,2
37.74432420730591,1,1,1,-7,-1,-1,2,-2,2
37.74432826042175,1,1,-1,-2,-2,1,1,0,2
37.75246620178223,-2,-1,0,1,2,0,0,-1,2
37.75246977806091,1,0,-1,5,0,2,0,-2,2
37.75941228866577,0,-1,-2,3,0,-1,-2,-1,2
37.759416818618774,-1,-1,-1,0,-1,-2,0,2,2
37.77801823616028,-1,0,1,1,-5,-1,-1,-1,2
37.778022050857544,2,-2,-1,1,0,2,3,0,2
37.781718730926514,-4,-3,-2,-5,-1,0,-1,-1,2
37.78172469139099,-1,2,0,-2,-2,1,2,-2,2
37.79002499580383,-1,2,-1,0,1,-1,-2,-1,2
37.7900288105011,2,1,1,1,1,-1,-2,1,2
37.79687786102295,-2,-2,-4,0,0,-2,-4,-2,2
37.79688215255737,2,-2,-1,-1,0,0,0,1,2
37.81284785270691,1,-1,-1,-2,-2,-1,-3,-1,2
37.81285309791565,2,1,2,1,1,0,1,0,2
37.819519996643066,1,2,1,5,1,1,1,-2,2
37.81952524185181,-2,0,1,0,0,0,0,-3,2
37.853844165802,-2,-2,0,-1,0,-3,0,-2,2
37.853848695755005,-1,-3,-3,-5,-3,1,1,-2,2
37.856553077697754,0,0,-1,-1,2,2,-1,1,2
37.856560945510864,3,1,0,3,1,-1,-4,-1,2
37.85848522186279,0,0,-1,-3,-4,-2,-1,-1,2
37.85849142074585,-2,0,0,-3,2,0,0,-2,2
37.86084222793579,0,0,1,2,3,1,-1,-1,2
37.860846519470215,0,-3,-4,-4,-3,-1,0,-3,2
37.880900859832764,0,-3,-1,-4,-1,-1,-3,-1,2
37.880905628204346,0,2,0,0,-3,-2,-1,0,2
37.88346982002258,1,-1,2,1,-2,-2,-1,-1,2
37.88347387313843,0,0,1,2,3,0,1,0,2
37.89596343040466,0,1,5,8,0,0,2,-1,2
37.895968437194824,-4,-6,-10,-12,-4,-2,-6,-3,2
37.89833211898804,0,-2,-4,-4,-1,-1,2,0,2
37.89833736419678,1,1,2,4,0,-1,0,-1,2
37.918137550354004,2,1,-1,-3,-1,-1,1,0,2
37.91814160346985,0,0,0,0,-1,-2,-1,-3,2
37.92016530036926,-3,-2,-1,-1,-1,1,-1,-1,2
37.92016887664795,-1,-1,-2,-1,-1,-3,-2,-1,2
37.93449521064758,1,0,0,2,1,0,-2,-2,2
37.9345006942749,-1,0,1,1,0,0,3,-1,2
37.94630527496338,0,-2,-3,-5,-3,-3,-2,0,2
37.94630789756775,0,-3,-3,-4,-3,1,-1,-1,2
37.95566415786743,-4,1,-1,-1,3,2,1,2,2
37.955676317214966,-1,0,0,2,1,-2,-1,-2,2
37.958110332489014,0,-1,1,1,0,-3,2,0,2
37.958115100860596,-2,0,-1,-1,-4,0,0,-1,2
37.97048783302307,-1,-1,-1,-4,-2,-1,-2,-3,2
37.97049403190613,1,0,0,1,1,2,0,2,2
37.98427748680115,-1,-2,-3,0,-2,-3,-2,-5,2
37.98428130149841,-2,-1,-1,1,0,-1,-1,0,2
37.992499351501465,1,-1,-3,-1,-1,0,-1,-3,2
37.99250388145447,-3,-2,2,0,-3,-2,1,-1,2
37.99937438964844,-2,1,1,0,-2,1,-1,0,2
37.99937915802002,0,1,3,0,0,0,1,1,2
38.023749589920044,-2,-3,0,-1,0,-1,-1,2,2
38.0237557888031,2,1,2,2,0,0,0,-1,2
38.026432037353516,-1,-1,-4,-3,1,-1,0,-1,2
38.02643632888794,-2,-1,-3,-2,0,-3,-4,-2,2
38.029207706451416,-1,1,-1,0,-1,0,0,-3,2
38.029210805892944,0,-1,1,3,1,-1,0,-2,2
38.038689613342285,0,-1,1,0,-1,0,1,1,2
38.03869390487671,0,-3,-3,-4,-1,2,0,1,2
38.06144738197327,0,-1,-2,-4,-2,-1,0,0,2
38.061453104019165,0,-2,-1,-2,-1,0,0,5,2
38.06432914733887,0,-2,-2,-1,0,-2,-2,-1,2
38.06433463096619,4,3,3,4,4,0,0,0,2
38.09097695350647,-1,-4,-5,-4,-2,1,1,-4,2
38.090980052948,0,0,0,-1,1,-2,-3,0,2
38.0924756526947,-1,0,2,1,-2,-1,0,0,2
38.09247803688049,-2,0,0,0,-2,1,-1,0,2
38.09327268600464,-1,0,-4,-4,1,-1,-3,0,2
38.09327507019043,-1,-2,-1,-2,-1,1,1,-2,2
38.09773635864258,0,-1,-1,-1,-2,1,0,-1,2
38.09773850440979,0,1,1,1,1,-1,0,-3,2
38.12138628959656,1,2,2,3,0,1,2,1,2
38.1213915348053,-6,-6,-8,-8,-3,2,-1,-2,2
38.12412619590759,1,2,1,0,0,-1,0,0,2
38.124131202697754,0,-1,-3,-1,-3,-1,0,0,2
38.13560104370117,-2,-3,-3,-3,0,-1,-4,-1,2
38.135605812072754,2,1,1,2,0,-2,-2,0,2
38.13770508766174,0,0,0,-1,-2,0,0,-1,2
38.13770914077759,-1,-1,-1,-4,-3,-1,0,0,2
38.15912199020386,1,0,1,4,4,-3,0,-1,2
38.15912747383118,0,2,1,4,4,-2,0,-1,2
38.16171050071716,-5,-5,-6,-9,-6,-2,-5,-3,2
38.16171431541443,0,-2,0,-1,0,-1,1,1,2
38.17253279685974,-1,-2,-4,-3,-6,0,-3,-3,2
38.172537088394165,2,1,1,0,-2,-2,0,0,2
38.19648098945618,0,1,0,0,1,3,2,0,2
38.19648551940918,-2,1,0,0,-1,-3,1,1,2
38.19755554199219,-3,-3,-1,-1,-1,0,-2,1,2
38.197558641433716,-1,-1,-1,1,1,0,0,-1,2
38.20031976699829,0,1,2,3,1,-2,0,3,2
38.200323820114136,1,1,1,0,-1,1,-2,-2,2
38.209582805633545,1,1,-2,-2,1,2,2,-3,2
38.20958924293518,-2,-3,-5,-6,-4,-2,-4,-1,2
38.23338603973389,-1,-1,-1,0,0,-1,0,-1,2
38.2333927154541,0,-1,0,0,0,1,-2,-2,2
38.23448443412781,3,2,3,2,3,-1,1,1,2
38.23448824882507,0,1,-1,0,0,3,0,-5,2
38.23932695388794,-1,0,0,2,1,0,-1,-1,2
38.239333152770996,-5,-4,-2,-3,-2,-1,-2,-1,2
38.26304507255554,2,-1,1,-1,-3,-1,-1,-2,2
38.26304817199707,0,0,2,0,0,-2,0,3,2
38.26417112350464,2,0,1,-1,1,0,0,-1,2
38.26417303085327,-2,-2,-3,-2,-4,-1,-3,-1,2
38.2694730758667,0,1,-1,-4,-2,-2,-4,-1,2
38.2694776058197,-1,-3,-2,1,-1,2,-1,-2,2
38.27900791168213,1,1,2,2,1,-1,1,0,2
38.279013872146606,2,1,-1,-1,0,2,3,0,2
38.30101299285889,1,-1,0,1,-1,-1,2,0,2
38.301018476486206,-3,-1,-1,-4,-2,-3,-3,-1,2
38.3038592338562,-1,1,0,0,-1,1,-1,0,2
38.3038649559021,-1,-4,-4,-3,-2,0,-2,-2,2
38.314656496047974,0,-2,-1,1,1,0,-2,0,2
38.31465935707092,1,0,1,1,-1,-1,0,1,2
38.33001494407654,-1,0,-1,0,4,-1,0,-2,2
38.33002066612244,0,-2,-3,0,0,-1,-1,-2,2
38.330992698669434,-2,-1,0,1,0,-2,-2,-1,2
38.33099603652954,3,1,1,1,-3,-1,1,-2,2
38.34017252922058,-2,-5,-5,-2,-2,0,-1,-1,2
38.340176582336426,0,0,3,-1,0,0,0,0,2
38.353047370910645,-3,-3,-3,-3,0,-2,-2,-1,2
38.35305142402649,1,0,1,1,-1,0,-2,-1,2
38.36678218841553,0,1,0,-2,-3,-1,2,-1,2
38.36678600311279,-1,-2,-2,-2,0,-2,-2,0,2
38.37531876564026,0,-1,0,0,-1,-1,0,1,2
38.375324726104736,1,-1,0,2,2,2,0,0,2
38.39889097213745,1,-2,-1,-3,-4,-2,-3,-2,2
38.39889454841614,-7,-3,-3,-7,-3,-3,-5,-2,2
38.39995098114014,0,-2,0,1,1,1,1,1,2
38.39995765686035,-3,0,-1,0,2,0,0,-1,2
38.40203499794006,2,-1,-2,1,-1,0,0,-1,2
38.40203905105591,1,1,2,3,-2,0,-1,0,2
38.420677185058594,-1,2,0,1,4,-2,-2,0,2
38.42068123817444,-1,-2,-2,-4,-1,-2,2,-3,2
38.422730445861816,0,0,-2,-4,-2,0,-3,0,2
38.422733545303345,0,0,-1,0,-1,-2,0,-2,2
38.43497681617737,0,-1,1,-1,-3,-1,1,0,2
38.43498182296753,0,-1,-2,1,0,-4,-3,2,2
38.44389033317566,0,0,1,2,1,-2,-1,0,2
38.44389581680298,-1,2,0,-1,-1,1,0,-2,2
38.45884084701538,-2,-4,-2,-4,-3,-2,-4,-3,2
38.458845376968384,1,-1,-2,-2,-2,0,2,1,2
38.461101055145264,1,0,0,0,-3,-1,0,0,2
38.46110773086548,0,0,-1,-1,1,0,2,0,2
38.47252082824707,1,1,-1,1,0,2,1,-2,2
38.472525119781494,0,0,1,1,1,1,-2,1,2
38.47985291481018,-1,-1,1,2,0,-1,-1,-2,2
38.4798583984375,0,-2,0,0,0,-4,-1,0,2
38.51086688041687,0,-2,-2,-1,-1,-2,2,0,2
38.51087260246277,-2,-3,-3,-4,-3,0,0,-1,2
38.513477087020874,-1,1,2,0,-1,0,0,-3,2
38.51348090171814,-2,0,0,0,-2,-1,-2,-1,2
38.52566838264465,0,0,-1,-1,-1,-1,-1,3,2
38.52567267417908,0,2,1,3,4,2,-1,-3,2
38.52812147140503,-3,-1,-4,-2,-3,0,-1,0,2
38.52812671661377,0,1,-1,0,-1,-1,1,1,2
38.54819059371948,-2,-2,-4,-6,-6,-2,-3,-5,2
38.548195123672485,-1,0,-1,0,-2,1,-1,-2,2
38.55020999908447,0,1,-1,0,1,-1,-1,-2,2
38.550213098526,-1,-1,1,1,3,-2,-2,-2,2
38.55493712425232,1,0,1,4,1,0,0,1,2
38.554940938949585,-1,-1,-1,1,0,0,0,1,2
38.569517612457275,0,-1,-1,-1,0,0,0,-1,2
38.56952166557312,-1,-1,-3,-2,-3,-1,-1,1,2
38.57814311981201,-1,-1,-1,-1,-2,0,-4,-3,2
38.57814693450928,0,-1,0,-1,1,-1,0,-1,2
38.58079385757446,0,-3,0,0,-2,-1,-2,0,2
38.580798387527466,2,0,-1,0,1,0,0,-1,2
38.59379577636719,2,1,3,4,2,1,1,0,2
38.593799352645874,-3,-4,-5,-6,-6,-2,-4,-5,2
38.60718059539795,-2,-1,-1,-1,1,-2,-1,0,2
38.607184171676636,1,1,0,-2,2,1,0,-2,2
38.61667084693909,1,0,0,0,0,-2,-2,-1,2
38.61667442321777,1,1,2,4,3,0,2,-1,2
38.63004207611084,-1,-2,-3,0,-4,0,0,2,2
38.630045652389526,-3,-2,-2,-2,0,0,-3,-1,2
38.64504957199097,-1,0,1,1,1,2,2,2,2
38.64505386352539,2,1,2,1,-2,-3,-1,-1,2
38.646018266677856,-3,0,1,3,2,1,0,1,2
38.64602208137512,1,-3,-1,0,-5,-1,0,-2,2
38.65532660484314,1,-2,-3,-4,-1,-2,-2,0,2
38.65533256530762,1,-1,0,-1,3,0,-1,1,2
38.676681995391846,-2,0,-1,0,0,-2,-1,-1,2
38.67669153213501,1,0,1,3,0,-2,-3,-1,2
38.682828187942505,-2,-2,-2,0,-2,1,1,0,2
38.68283224105835,0,1,1,2,-3,-2,0,-4,2
38.68374943733215,-2,0,-1,-3,0,-3,-3,0,2
38.6837522983551,0,-1,-1,-1,0,-1,1,1,2
38.69760584831238,0,0,-2,-2,-2,-4,-2,-1,2
38.697611808776855,0,-3,-2,-2,1,0,1,1,2
38.69895577430725,0,-1,2,2,0,0,2,-2,2
38.69896173477173,-1,-2,-2,-2,-1,-1,-2,0,2
38.71404433250427,-3,-1,-2,-5,-2,1,-2,-3,2
38.714049339294434,1,2,0,1,-1,-1,-1,1,2
38.71955752372742,-2,-2,-4,-2,-1,-1,-1,1,2
38.719565629959106,-2,-4,-2,-3,-4,-1,-3,-4,2
38.75072145462036,0,-1,3,5,4,1,0,0,2
38.75072646141052,0,-4,0,0,4,-1,-1,-3,2
38.75172257423401,3,1,1,-1,-2,-1,-1,-1,2
38.75172543525696,-1,0,3,3,0,1,1,1,2
38.75748872756958,-1,-1,-1,-2,-4,0,0,1,2
38.757492542266846,-1,-1,-1,-2,-3,0,-1,-1,2
38.75852918624878,-3,-3,-1,0,1,-2,-1,-2,2
38.75853252410889,0,-2,-3,-9,-2,1,2,1,2
38.78997015953064,1,-1,-2,-2,-1,-1,-2,-2,2
38.78997468948364,-2,-1,0,-4,-1,0,0,0,2
38.79087424278259,3,2,-1,1,1,2,1,1,2
38.79087734222412,-2,-1,-3,1,0,-1,-4,-1,2
38.794233560562134,-1,-3,0,-1,-4,-3,-3,1,2
38.79423713684082,2,2,2,5,4,2,2,-1,2
38.801881074905396,-2,-7,-7,-7,-5,-3,-6,-7,2
38.80188512802124,0,0,2,2,2,2,0,0,2
38.81960105895996,-1,-1,1,-2,-1,0,0,-1,2
38.81960701942444,2,1,2,2,-1,-2,-2,1,2
38.82054829597473,-2,-1,1,-3,-1,-2,1,0,2
38.82055115699768,-2,-3,-5,-5,-3,-3,-3,-3,2
38.833691358566284,2,1,2,2,0,0,1,0,2
38.83369588851929,-1,-3,-2,-5,-5,-1,-3,-3,2
38.84846901893616,0,-1,-1,1,2,2,1,-2,2
38.84847378730774,2,2,1,3,1,3,2,0,2
38.85473585128784,0,0,-1,3,2,-3,-1,-3,2
38.85474133491516,-2,-2,0,1,-4,-1,-1,0,2
38.86215114593506,2,0,-1,-3,-3,-3,1,0,2
38.86215662956238,1,-2,-5,-4,-3,-1,-1,0,2
38.89351415634155,-1,-1,-2,-2,0,-1,0,-3,2
38.89351749420166,-2,-1,-2,-1,0,-1,-2,-2,2
38.89422607421875,-3,0,8,9,2,1,0,2,2
38.89422869682312,0,0,-4,1,3,0,2,1,2
38.89785289764404,-1,-1,-4,-12,-4,-2,-3,-1,2
38.89785718917847,-1,-3,-3,-1,-2,-1,-3,-3,2
38.899232387542725,-1,-1,0,-2,-1,2,0,0,2
38.89923572540283,1,3,3,4,1,-2,-2,-2,2
38.92436981201172,1,0,1,-2,0,-1,0,0,2
38.92437410354614,-1,0,-1,-5,-2,0,1,3,2
38.925305128097534,-3,-2,-2,2,3,0,-1,-3,2
38.92530846595764,-1,-4,1,-5,-5,1,-2,0,2
38.955053091049194,-1,-1,-3,-2,3,1,1,0,2
38.955057859420776,-1,1,0,0,0,1,1,0,2
38.95610499382019,3,4,1,-1,-1,-1,2,-1,2
38.95610809326172,-5,-3,-3,-2,-2,0,-5,-3,2
38.958255767822266,0,-4,-1,-2,-5,-1,-2,-3,2
38.95825934410095,0,0,1,4,4,0,1,2,2
38.95918011665344,-1,-3,-3,-1,-1,-1,-4,2,2
38.95918297767639,0,3,0,0,0,-3,1,1,2
38.97467756271362,1,-1,0,0,0,2,-1,-4,2
38.97468590736389,0,0,0,2,-2,-2,-1,1,2
38.98996686935425,4,-1,-4,-5,-2,1,-2,-3,2
38.989970684051514,0,-3,-1,1,0,0,0,-2,2
38.99784326553345,-3,-2,1,3,0,-2,-2,0,2
38.99784708023071,1,1,-1,1,1,-1,-1,0,2
39.00452637672424,0,1,-1,-2,1,0,0,0,2
39.00453019142151,2,1,6,1,-4,-2,1,-1,2
39.02836871147156,-1,1,-6,-5,-1,0,1,-1,2
39.02837371826172,-4,-5,-6,-5,-3,-1,-4,-2,2
39.029459953308105,1,1,1,2,1,-3,-1,0,2
39.02946376800537,2,3,4,5,4,0,0,-1,2
39.03444790840149,-3,1,2,4,-3,1,-1,-1,2
39.034451961517334,-1,-1,-1,-2,4,-1,-1,0,2
39.04196500778198,1,-1,-4,-6,-2,-2,-2,-3,2
39.041969537734985,-1,1,0,1,3,0,0,0,2
39.066765785217285,-1,-1,0,4,-1,-1,0,-3,2
39.06676983833313,2,0,0,-5,-4,-2,1,1,2
39.067736864089966,-3,-5,-4,-11,-5,-2,-5,-4,2
39.067739725112915,0,-1,-2,1,0,-1,-1,-1,2
39.07341408729553,1,1,0,1,1,0,-2,-2,2
39.07341742515564,0,3,3,7,1,-1,1,1,2
39.07943081855774,-4,-1,-2,1,-1,-2,0,-1,2
39.07945156097412,-2,-1,-2,-6,-2,-1,0,-1,2
39.097949743270874,-1,-1,-2,-4,1,0,1,-1,2
39.09795618057251,3,-1,0,-4,0,1,0,-5,2
39.10213041305542,0,2,0,3,-1,-1,-2,0,2
39.10213565826416,-3,-3,-1,3,0,-2,-1,2,2
39.12570261955261,0,-1,0,1,-1,-2,-1,0,2
39.12570834159851,-3,-1,-4,-4,-1,-1,-1,-3,2
39.12666320800781,2,0,1,4,0,0,1,4,2
39.126667499542236,2,3,0,1,1,0,1,-2,2
39.13362002372742,-3,-6,-5,-10,-5,-4,-7,-4,2
39.13362431526184,-1,1,0,-2,-1,-2,-2,1,2
39.14024090766907,-1,-3,-2,-1,1,3,1,-3,2
39.14024519920349,-2,-2,-2,-4,-2,-1,-2,0,2
39.16280174255371,1,0,1,3,1,1,-1,1,2
39.16280746459961,0,-1,-1,-1,-1,1,-2,-1,2
39.16402578353882,1,-1,1,1,0,0,2,2,2
39.164029598236084,0,-2,-2,1,0,1,1,0,2
39.178760051727295,1,2,0,1,-1,-1,1,-1,2
39.178765535354614,-2,-4,-4,-1,2,-2,-1,0,2
39.1797251701355,0,1,1,3,2,0,0,3,2
39.17972803115845,-3,-3,-3,-3,-2,-1,-3,-4,2
39.23340916633606,0,0,0,-2,-2,1,0,1,2
39.233415603637695,1,0,0,0,-5,-2,-1,-1,2
39.23478937149048,0,-1,-2,-1,1,2,0,-4,2
39.23479509353638,-4,-3,-5,-4,-4,-5,-6,-4,2
39.23866891860962,2,0,1,3,2,0,1,1,2
39.238672971725464,-1,-1,1,1,0,0,0,3,2
39.23960471153259,-1,0,-1,-3,0,0,1,1,2
39.23960781097412,0,0,-1,0,-1,1,-2,2,2
39.24153113365173,1,-1,-2,-2,1,-3,0,-2,2
39.24153399467468,0,-1,-2,-1,-1,1,-2,-3,2
39.24439358711243,0,0,1,1,-1,-3,0,2,2
39.24439787864685,1,1,2,0,1,-2,0,1,2
39.25379157066345,1,2,2,2,0,-1,1,1,2
39.253796339035034,-2,-5,-4,-4,-1,0,1,-1,2
39.26827883720398,-3,-1,1,1,-1,-2,-3,-3,2
39.26828622817993,0,1,3,5,1,1,0,-1,2
39.27466797828674,-1,-1,-2,-5,-4,-2,-2,1,2
39.27467370033264,1,-1,-1,-8,-2,-1,1,-4,2
39.28185057640076,0,0,-6,-3,-1,0,0,-2,2
39.28185486793518,1,-5,-4,-5,-4,-2,-3,-3,2
39.297502279281616,0,3,2,7,4,1,2,0,2
39.29750728607178,-3,-5,-1,1,0,1,-1,-2,2
39.31266689300537,1,-1,2,-2,0,0,-2,0,2
39.31267023086548,0,1,4,4,-1,-1,2,0,2
39.31585931777954,0,0,2,0,-1,0,-1,3,2
39.3158643245697,-2,0,-2,-5,-2,0,1,-4,2
39.31946563720703,-3,-3,-3,-3,-2,0,-1,-3,2
39.319469690322876,-1,0,-3,-4,0,2,1,-3,2
39.337679624557495,-1,0,0,0,-1,0,1,-3,2
39.337684869766235,3,3,1,4,-1,-1,2,5,2
39.34209752082825,1,2,0,-1,-5,-2,-1,0,2
39.34210228919983,0,-1,-1,-2,1,0,0,-1,2
39.35697841644287,-2,-3,-2,-3,-1,-1,-2,-3,2
39.35698413848877,-3,2,1,2,0,-1,-2,0,2
39.373313665390015,-2,-2,-1,-1,0,-1,-1,0,2
39.373318910598755,1,0,0,-1,0,-2,-1,-2,2
39.37633395195007,1,-1,-2,-2,-2,-1,-1,1,2
39.376341104507446,1,-1,0,3,-1,-1,-1,0,2
39.380005836486816,0,-1,-1,0,-4,-1,-3,-2,2
39.38001370429993,-1,0,0,-2,2,-1,0,1,2
39.403050899505615,-2,-4,-6,-6,2,4,0,-5,2
39.40305781364441,0,-3,-1,-2,-3,-2,-3,-2,2
39.404467821121216,0,0,1,-5,-4,-2,-1,1,2
39.4044725894928,0,0,0,1,-1,0,-1,-2,2
39.41688060760498,1,3,4,4,1,-3,1,1,2
39.416884660720825,-4,-4,-5,-6,-4,-2,-4,-4,2
39.42508888244629,2,0,0,1,0,-1,-1,1,2
39.42509436607361,0,0,-2,-1,-1,1,1,-1,2
39.44222950935364,0,-2,1,0,-2,-3,-3,-1,2
39.44223356246948,0,1,-1,0,1,0,0,-2,2
39.44674110412598,-1,-2,-2,0,0,-1,-1,0,2
39.44674515724182,-2,-1,1,-1,-1,-1,-1,1,2
39.456337213516235,1,2,0,1,0,0,2,-1,2
39.45634150505066,-2,-1,0,1,2,-1,0,1,2
39.461878061294556,0,1,-1,-2,-1,-2,0,-1,2
39.4618821144104,-2,0,1,1,2,1,1,0,2
39.47794318199158,-4,-4,-3,-3,-2,-3,0,-2,2
39.47794771194458,0,1,2,2,1,-1,1,0,2
39.48443412780762,-2,-3,-3,-1,1,1,0,-2,2
39.48443865776062,0,-1,0,1,-3,-2,0,1,2
39.51809477806091,-1,-1,-3,-1,2,2,0,-1,2
39.51810026168823,4,1,-1,-4,-7,-1,-2,-2,2
39.51900386810303,0,2,0,-3,6,0,2,-1,2
39.519006967544556,2,1,1,4,0,1,-1,1,2
39.52282190322876,-4,-2,-1,-1,-2,-4,-4,-2,2
39.522828340530396,1,-1,1,5,2,-1,0,-1,2
39.524024963378906,-2,-2,2,2,-6,-2,-2,-2,2
39.52402973175049,-3,-2,-6,1,2,-1,-2,0,2
39.54532790184021,2,0,-1,-3,-1,1,1,1,2
39.54533243179321,1,0,-2,-5,0,-1,1,0,2
39.54627251625061,-1,-2,-1,1,-1,1,1,0,2
39.54627561569214,0,0,2,-1,1,0,0,0,2
39.56001043319702,-3,-4,-4,-2,-3,1,-2,-1,2
39.560014486312866,0,0,0,0,-2,-1,-2,-3,2
39.56093978881836,1,0,-3,-3,-1,-2,-2,0,2
39.56094264984131,-1,1,1,4,2,2,0,1,2
39.58420276641846,1,0,1,2,1,0,0,-2,2
39.58420658111572,1,0,0,0,-2,1,0,-3,2
39.58507966995239,0,-3,-2,-5,-4,0,-2,-2,2
39.58508229255676,1,-2,-3,-2,-1,0,0,-2,2
39.596463441848755,0,0,1,-2,-1,1,-2,0,2
39.59646654129028,-4,-2,0,-1,-1,-2,-1,0,2
39.621057987213135,1,-1,1,8,2,-1,-1,-2,2
39.62106132507324,0,1,2,3,-1,-2,0,-2,2
39.622437953948975,-1,-3,-3,-5,-3,0,1,-3,2
39.62244009971619,1,-1,-1,-1,-1,0,-2,1,2
39.623250246047974,-3,-4,-4,-6,-3,-1,-3,-2,2
39.62325167655945,-1,-3,-3,-4,-3,-1,0,-2,2
39.636353731155396,1,3,3,5,3,-1,1,1,2
39.63636755943298,-1,1,-1,3,4,2,3,1,2
39.65032720565796,-4,-2,-2,-2,-7,-1,1,-3,2
39.65033268928528,0,-1,0,-2,2,1,-1,-1,2
39.65675616264343,-1,1,0,1,-1,1,0,0,2
39.65675950050354,-1,-2,0,-3,-3,-2,-1,-3,2
39.66472864151001,3,4,3,4,3,-2,-2,1,2
39.66473317146301,-2,-5,-3,-3,-5,-1,0,-4,2
39.68303155899048,0,-2,-1,0,0,-1,-4,0,2
39.68303680419922,0,0,-2,-3,-2,-2,-3,-2,2
39.68699884414673,1,-1,0,-2,-1,-1,1,-4,2
39.68700337409973,-1,0,-2,-1,-2,-3,-1,-1,2
39.696924448013306,2,2,0,1,1,-1,0,0,2
39.696930170059204,-3,-3,0,6,2,0,-1,-1,2
39.70304870605469,2,-2,0,1,-1,1,0,-1,2
39.703054904937744,1,-1,-2,-11,-6,-2,-2,0,2
39.71790599822998,-1,1,-1,0,0,0,3,-1,2
39.71790814399719,0,0,-1,-3,-2,1,-2,1,2
39.72472786903381,-3,-1,0,4,1,-1,1,-1,2
39.72473359107971,-3,-5,-2,-3,-3,-4,-5,-2,2
39.74016046524048,0,-2,-1,-3,-3,0,1,1,2
39.74016571044922,-1,0,-2,1,-1,-2,-2,-2,2
39.742034912109375,1,0,-1,-2,1,2,0,-1,2
39.74204087257385,3,0,1,1,0,0,1,0,2
39.75584864616394,0,0,-1,0,0,0,-1,-1,2
39.75585198402405,0,1,1,0,0,1,-1,1,2
39.76198649406433,1,-1,0,-2,-1,-1,0,1,2
39.76199150085449,2,1,-1,-1,-1,0,0,0,2
39.786826372146606,-2,-2,0,1,-1,-3,-3,-2,2
39.786829233169556,0,-1,0,0,0,0,1,-2,2
39.787397623062134,-2,-2,-1,-4,-3,-1,-2,-2,2
39.78739905357361,0,0,0,-2,0,-3,0,-1,2
39.79996395111084,2,-2,-1,0,-2,0,-1,0,2
39.799968242645264,-1,-1,-2,0,-2,-1,-2,-1,2
39.8008668422699,-1,3,1,1,1,0,1,3,2
39.80086970329285,-6,-6,-8,-8,-5,2,-2,-5,2
39.82458233833313,2,-1,2,3,4,-1,-2,1,2
39.82458734512329,-2,-2,-2,-3,0,-2,-2,0,2
39.82553553581238,2,2,1,-1,-4,-3,-2,-1,2
39.825538635253906,0,1,2,4,3,2,3,2,2
39.83680486679077,1,0,-2,-1,-2,0,-2,1,2
39.836808919906616,-2,-2,-2,-4,1,1,1,-1,2
39.862313985824585,-2,-1,-1,4,2,2,2,-1,2
39.86232089996338,-1,1,1,2,-3,-2,1,-2,2
39.86436319351196,-2,1,-1,1,-1,-2,-1,-2,2
39.86436676979065,2,1,2,2,-2,-2,1,-1,2
39.86524558067322,-3,-3,-4,-8,1,0,-3,-2,2
39.86524820327759,-1,1,2,2,1,0,0,-1,2
39.87598133087158,4,1,-1,-4,-2,-2,2,-1,2
39.87598466873169,-2,1,-2,0,1,-1,1,-1,2
39.89100480079651,-5,-3,-3,0,-5,2,-1,-3,2
39.89100909233093,-2,-3,-2,-1,2,1,-2,0,2
39.89858388900757,-2,-1,-1,-3,-3,0,-3,-1,2
39.89858794212341,4,2,3,3,2,-2,1,1,2
39.90443158149719,2,1,0,5,2,-2,-1,1,2
39.90443563461304,-2,-2,1,-1,2,0,-3,-2,2
39.92761945724487,-5,0,-1,-2,-2,-1,1,-4,2
39.92762613296509,0,-3,-2,-4,-2,-2,-2,-3,2
39.935786962509155,0,-2,0,0,1,1,-2,0,2
39.935791015625,2,-1,-3,0,-4,-2,1,-2,2
39.93834948539734,-2,0,1,1,2,1,0,1,2
39.93835425376892,-1,-3,-3,-3,-2,-1,-1,-2,2
39.94185709953308,-1,0,-2,-3,-2,-1,-1,-2,2
39.941861629486084,1,3,0,4,1,0,-1,0,2
39.96710133552551,-2,-4,-4,-5,-5,1,-1,-3,2
39.967106103897095,-2,0,0,1,-1,2,-1,0,2
39.968446016311646,-1,-1,-1,1,0,-1,-1,-3,2
39.96845078468323,0,0,0,-1,-1,0,-3,0,2
39.98024773597717,0,1,2,1,2,-1,3,0,2
39.98025441169739,1,1,-2,-3,-2,1,-2,-3,2
39.981595039367676,2,-3,-3,-1,2,-1,-2,0,2
39.98160195350647,1,2,1,2,-1,0,0,0,2
40.00459289550781,0,-2,0,0,-1,-1,-3,1,2
40.00459885597229,-1,-1,-3,-3,-4,-1,0,-2,2
40.005579471588135,-1,0,-1,1,-1,-1,-1,-3,2
40.00558257102966,1,-1,-2,2,0,1,1,-2,2
40.03351020812988,-3,-5,-3,-3,-2,-1,-3,-2,2
40.0335156917572,2,1,1,1,1,-2,1,2,2
40.034727811813354,-1,1,0,-4,-3,-2,0,0,2
40.03473162651062,-4,-5,-3,-1,1,0,-2,-2,2
40.03996729850769,0,-1,-1,0,0,0,0,-3,2
40.03997015953064,-3,-3,-3,-5,-2,-2,-5,-2,2
40.04085683822632,2,-1,-1,1,0,-1,0,2,2
40.04085969924927,1,1,0,2,1,1,1,0,2
40.072636127471924,0,0,1,3,2,-1,1,0,2
40.07264041900635,1,1,-1,2,1,0,1,0,2
40.073588132858276,1,0,1,3,1,-2,0,-1,2
40.073591470718384,0,1,0,-1,-5,-5,-1,-1,2
40.07690739631653,-2,0,-3,-5,-3,-1,-4,-1,2
40.076913595199585,0,1,0,1,0,2,-2,-1,2
40.08439898490906,3,2,1,-3,-4,0,0,-1,2
40.08440351486206,1,0,1,2,3,-1,2,1,2
40.10281181335449,-2,-3,-4,-4,-1,0,1,-2,2
40.10281729698181,2,-1,0,0,0,-1,-2,-1,2
40.10396766662598,-4,-5,-5,-5,-1,-2,-5,-1,2
40.103971004486084,0,-1,0,1,-1,0,0,-1,2
40.11653399467468,1,1,0,1,1,-2,2,0,2
40.116538286209106,1,-1,1,0,0,0,0,2,2
40.13832664489746,-2,0,-1,0,0,0,-3,-3,2
40.13833284378052,-2,-2,-1,-2,-3,-3,0,0,2
40.14074778556824,-1,-1,-1,1,0,2,-1,-2,2
40.14075207710266,0,-2,-1,0,0,-1,-2,0,2
40.14449071884155,-3,-1,-3,-3,-3,0,-2,0,2
40.14449620246887,0,-1,-2,-2,-2,-1,-3,-2,2
40.16761040687561,0,-1,2,2,-1,-1,-1,-1,2
40.16761493682861,0,0,0,1,-1,-1,0,-3,2
40.168615102767944,-2,-3,-2,-1,0,2,2,-2,2
40.16861844062805,2,-1,0,0,0,-3,-2,-2,2
40.17691230773926,-1,-3,-4,-6,-4,0,0,-1,2
40.176917552948,-3,0,-1,-3,-5,-3,-1,1,2
40.18261194229126,1,1,1,5,6,2,4,0,2
40.18261766433716,-1,-1,-3,-1,-2,-1,-3,-1,2
40.20495939254761,3,0,2,4,1,-1,-1,0,2
40.20496392250061,-2,-4,-5,-3,-1,0,1,-3,2
40.20596885681152,1,-1,1,-1,-5,-3,-1,0,2
40.205974102020264,-1,0,0,-1,0,-1,-1,-1,2
40.21949315071106,0,2,1,3,5,1,-4,-2,2
40.21949744224548,1,-1,-1,2,-1,1,1,1,2
40.24410343170166,-4,-3,-4,-9,-7,-4,-5,-2,2
40.24410820007324,-2,0,0,1,0,0,1,-2,2
40.24618315696716,0,-2,0,-1,-1,-1,-1,-1,2
40.24618721008301,-2,1,1,1,1,-1,-2,0,2
40.24712824821472,-1,0,1,1,1,0,1,0,2
40.24713110923767,-2,2,-1,-1,0,-2,0,2,2
40.25628471374512,-3,0,-1,-1,-5,-1,1,-3,2
40.25628662109375,-3,-3,-2,-1,-1,-1,0,0,2
40.28088712692261,-3,-1,-2,0,1,0,0,-1,2
40.28089118003845,1,-1,-4,-6,-3,1,-1,-2,2
40.282957315444946,0,0,-1,2,2,-2,1,0,2
40.28296089172363,-1,-3,-3,-4,-4,-1,-1,-1,2
40.28665828704834,-2,-1,0,3,0,-1,-1,-1,2
40.286662101745605,-1,-2,0,0,0,0,-1,1,2
40.31272792816162,3,0,0,-4,-1,-2,0,-4,2
40.31273317337036,0,-1,1,-2,0,-2,-1,-4,2
40.31384468078613,-1,1,-1,2,2,0,0,-1,2
40.313849687576294,-1,-1,0,-2,-5,-1,-1,0,2
40.3168888092041,-2,-2,-1,5,2,-1,-1,1,2
40.31689381599426,0,1,2,3,3,1,0,0,2
40.3410804271698,2,-1,-2,-4,-2,1,2,-1,2
40.34108567237854,1,-1,-2,0,1,0,-3,-2,2
40.34956192970276,-2,1,0,-3,-3,-2,0,-1,2
40.34956669807434,-3,-1,-1,3,1,1,-1,-2,2
40.3505482673645,0,1,1,2,-1,-1,-3,0,2
40.35055184364319,-2,-2,0,0,-1,0,-2,-2,2
40.36256217956543,4,1,-1,-4,-1,-1,-2,-1,2
40.36256647109985,-2,-3,-6,-7,-4,-2,-3,-3,2
40.363669872283936,0,-1,0,-1,-2,1,-1,0,2
40.363675117492676,0,1,1,0,1,1,1,1,2
40.37879753112793,-2,-3,0,2,1,-1,0,0,2
40.378804445266724,-1,1,1,0,1,-1,3,2,2
40.3843936920166,3,-1,0,1,-2,0,-1,-1,2
40.384397983551025,-1,2,1,2,-1,-2,1,0,2
40.41601848602295,-1,0,1,2,3,2,2,0,2
40.41602396965027,2,2,1,0,-2,0,0,-1,2
40.41716957092285,0,-5,-5,-6,-4,-3,-1,-1,2
40.4171724319458,-1,-2,-1,-1,-2,0,0,-1,2
40.422374963760376,1,0,-1,2,3,1,0,1,2
40.422378063201904,2,2,2,2,-3,1,0,-2,2
40.42345690727234,-2,3,3,1,1,-1,0,3,2
40.42346215248108,0,0,-2,-4,-2,0,0,-1,2
40.44538903236389,-3,-3,-4,-5,-4,0,0,-1,2
40.445393085479736,-1,-2,0,4,3,-1,0,0,2
40.4467990398407,0,0,0,-1,-1,-2,1,-2,2
40.4468035697937,-2,-2,-2,-4,-2,-3,-3,-3,2
40.45939373970032,1,1,1,0,-2,1,-1,1,2
40.45939826965332,-4,-3,-3,-1,-1,-1,-2,-2,2
40.46679401397705,2,-1,2,3,2,-2,0,1,2
40.466798067092896,-1,-1,1,0,1,0,0,1,2
40.4902126789093,-1,0,-2,-1,-2,-2,-2,-3,2
40.49021530151367,1,0,0,-1,-1,0,-4,0,2
40.49083876609802,-4,-1,-3,-2,-2,-1,-2,0,2
40.49083995819092,0,-2,-1,-1,0,1,1,-1,2
40.49693727493286,-1,0,0,0,-1,0,-1,0,2
40.49694204330444,-2,0,1,-2,-1,-2,-3,-2,2
40.52090311050415,1,-1,-2,-2,1,2,0,-2,2
40.520907163619995,-1,-2,-4,-3,-2,-2,-3,-2,2
40.522928953170776,1,-3,-3,-2,-3,-2,0,-1,2
40.52293276786804,0,-2,0,-1,-2,1,1,-3,2
40.52673864364624,-1,-2,1,-2,2,0,-2,-1,2
40.52674317359924,1,0,0,2,0,-1,0,-1,2
40.55915093421936,-2,-2,0,-1,-1,0,0,-3,2
40.5591561794281,-1,0,-1,0,0,-1,0,0,2
40.5603883266449,-1,0,0,2,-2,-1,1,-1,2
40.56039261817932,-1,-1,0,1,0,0,1,0,2
40.562721252441406,-1,-1,-1,-4,-2,-4,-2,-1,2
40.56272530555725,-1,-3,-4,0,3,-1,-2,-1,2
40.564186573028564,3,0,1,4,2,1,2,2,2
40.564189195632935,0,-1,0,-3,-2,-1,-3,-4,2
40.598273277282715,-2,-2,-2,-2,-2,0,-3,1,2
40.59827899932861,1,1,0,0,-2,-1,1,1,2
40.59961724281311,-3,-2,-2,-3,3,1,2,-1,2
40.59962201118469,-3,-2,-3,-1,-3,-2,-3,0,2
40.627065896987915,2,0,1,-3,0,-1,1,-1,2
40.62707042694092,-3,-1,-1,-2,-1,1,0,0,2
40.62807321548462,-1,1,-1,3,-1,1,1,0,2
40.628077268600464,2,0,0,1,3,-1,2,-1,2
40.63013696670532,-2,1,-2,1,0,-2,-2,-2,2
40.63014078140259,0,-1,-1,0,-2,-2,0,-1,2
40.6325409412384,0,0,2,-2,-4,-2,-2,1,2
40.63254499435425,-1,-3,-2,-2,1,1,1,-1,2
40.6393826007843,1,-1,-2,1,-1,-1,-2,2,2
40.63938665390015,-1,-1,-2,-2,-1,0,0,-2,2
40.65557336807251,0,0,-3,-1,-2,-2,-1,-2,2
40.655576944351196,1,0,-1,-2,-1,-1,0,-3,2
40.665584087371826,-1,0,0,1,1,0,0,1,2
40.665589332580566,2,-1,-1,-1,0,0,1,-3,2
40.66666603088379,-4,-6,-6,-9,-7,-4,-8,-2,2
40.66666913032532,0,0,0,0,0,1,-1,-1,2
40.67670464515686,1,0,1,0,2,1,3,-1,2
40.67670774459839,2,3,2,1,0,-1,0,1,2
40.69438862800598,2,3,3,8,2,0,-1,1,2
40.6943941116333,-1,-2,-3,-1,-5,-2,-3,0,2
40.69986367225647,-3,-4,-6,-10,-10,0,-3,-3,2
40.69986844062805,-1,-1,-2,-5,0,-1,0,1,2
40.73192286491394,2,0,2,3,1,1,-1,-1,2
40.73192644119263,0,1,-1,3,3,0,0,0,2
40.73379588127136,-1,1,1,6,2,-3,1,-2,2
40.73379969596863,-3,0,0,-1,-3,0,-1,-2,2
40.73566651344299,-1,-3,-1,-5,-2,-1,0,-4,2
40.73567199707031,0,2,0,1,-2,-1,1,-1,2
40.73888278007507,2,0,0,0,3,0,-1,-1,2
40.738887786865234,-1,-1,-1,1,0,-1,0,0,2
40.74454593658447,-1,0,1,0,-1,-2,-1,-3,2
40.744550704956055,-3,0,0,0,-1,-2,-2,-2,2
40.761555194854736,-2,-1,0,-3,-2,-3,0,2,2
40.76156044006348,0,0,-1,1,0,-1,-1,1,2
40.76851987838745,0,0,-1,2,2,2,0,-3,2
40.768524408340454,-2,1,-1,-4,-3,0,-1,1,2
40.7989776134491,-4,-1,-1,0,-1,-1,-1,-4,2
40.798983335494995,-2,-2,-3,-5,-3,-1,-3,-1,2
40.80003905296326,0,-2,-1,-3,0,0,1,3,2
40.80004262924194,0,-1,-3,-2,2,0,-2,-1,2
40.81271529197693,3,1,0,4,1,2,0,-2,2
40.81271839141846,0,-1,0,2,0,-2,-1,-2,2
40.814382791519165,1,0,-2,-2,-1,-1,1,2,2
40.8143892288208,0,0,1,2,0,-1,0,0,2
40.82759189605713,-2,-3,-2,-2,-2,0,0,-1,2
40.82759618759155,0,0,0,0,0,-1,-3,-2,2
40.82848834991455,-1,-1,-1,-2,-3,-2,0,-1,2
40.8284912109375,-2,1,1,-1,-1,-2,0,-1,2
40.84248423576355,-1,-1,-1,1,-2,-1,-2,0,2
40.84248876571655,0,-1,-1,-1,0,1,0,-1,2
40.84349083900452,0,0,0,-2,-1,0,-2,-1,2
40.843494176864624,1,-2,-2,2,1,0,0,0,2
40.86504912376404,1,-2,-1,1,3,-1,-2,-2,2
40.8650541305542,1,2,3,4,-3,-2,2,1,2
40.86599659919739,-5,-3,-6,-8,-2,-1,-3,-4,2
40.866000175476074,1,1,3,-1,0,0,1,1,2
40.90506935119629,-2,-2,-3,-7,-5,-3,-3,0,2
40.90507626533508,-1,-3,-3,-2,-1,-1,-1,0,2
40.906617879867554,0,-1,4,2,0,-2,-1,-1,2
40.90662217140198,0,0,-1,1,0,2,-1,0,2
40.909656047821045,2,3,2,1,1,-4,-1,1,2
40.90966033935547,1,-1,0,-3,0,-1,0,0,2
40.91764831542969,0,0,0,0,-2,-3,-1,-4,2
40.91765093803406,-3,-4,-2,-1,1,-2,-2,-2,2
40.91917276382446,1,0,0,1,-1,0,0,2,2
40.91917419433594,-1,-1,-2,-3,-2,-1,0,3,2
40.93252944946289,0,0,0,0,-2,0,2,-2,2
40.932533502578735,3,0,1,3,-1,-2,0,-1,2
40.93952417373657,-1,-1,-4,-4,-1,1,-1,-3,2
40.93952918052673,1,-1,-1,-2,-2,0,2,0,2
40.94686031341553,0,-2,-2,-4,-1,-2,-2,-2,2
40.94686436653137,1,0,0,0,-3,0,-1,0,2
40.97273778915405,-3,-1,1,6,4,0,1,1,2
40.972742319107056,-2,-1,0,1,-1,-2,0,1,2
40.97377395629883,-1,1,-2,-1,1,0,-2,1,2
40.973777294158936,-2,-1,0,-1,-1,0,-2,-2,2
40.976863384246826,2,0,1,-1,-1,0,0,-3,2
40.97686743736267,-4,-3,-2,-5,-3,-1,-4,-3,2
40.98472762107849,-2,-1,-1,0,-1,1,1,1,2
40.98473358154297,-1,-1,-3,-2,-1,-1,-2,0,2
41.00231218338013,-3,0,1,1,-2,-2,0,0,2
41.002317905426025,-2,-1,-1,3,1,-1,-1,-1,2
41.006935358047485,1,1,0,1,0,0,0,1,2
41.00694036483765,-2,-3,-4,-7,2,0,0,-3,2
41.02256751060486,-2,-2,-2,-5,-4,0,-3,1,2
41.0225715637207,4,0,2,1,2,-1,1,-1,2
41.02355599403381,-4,-4,-5,-4,-2,-2,-4,1,2
41.02355909347534,3,2,4,4,1,-1,1,2,2
41.04555416107178,0,0,-2,-2,1,1,1,-3,2
41.045557737350464,-2,0,-1,-2,-2,-1,-2,1,2
41.0465612411499,2,2,2,1,-2,0,0,0,2
41.04656481742859,-1,-2,-2,-2,-1,1,-1,0,2
41.07608199119568,0,-2,-3,-1,-1,-2,-1,-1,2
41.07608699798584,-1,-1,-3,-2,-2,-1,-1,-2,2
41.07729911804199,0,0,-2,-2,0,-1,-1,-1,2
41.07730293273926,-1,0,1,0,1,-1,1,-1,2
41.08312392234802,-3,0,1,2,0,1,0,1,2
41.0831298828125,-1,0,1,0,-1,1,2,1,2
41.08424639701843,-1,-1,-3,-2,-1,0,-1,0,2
41.08424997329712,-4,-4,-4,-6,-4,-3,-5,-2,2
41.10567903518677,1,-1,1,0,2,-1,-2,0,2
41.10568308830261,1,1,-1,1,0,-1,0,-2,2
41.10663890838623,2,2,1,4,0,2,2,-4,2
41.10664176940918,0,0,1,1,0,-2,0,1,2
41.11937069892883,0,1,0,-4,-1,-1,-2,-1,2
41.1193745136261,-3,-4,-4,-5,0,-2,-2,-2,2
41.14322757720947,-2,-1,0,0,-1,-2,0,0,2
41.143232583999634,1,0,0,0,1,0,0,-1,2
41.145156383514404,-1,-1,-3,-2,-2,0,0,-4,2
41.14515972137451,3,2,1,1,-1,0,0,0,2
41.15012073516846,0,-1,0,-1,0,0,-1,-1,2
41.1501247882843,-6,-1,1,-4,-3,-2,-2,-1,2
41.181453227996826,1,-1,-1,-1,0,-2,-3,-1,2
41.18146204948425,2,1,1,0,-1,0,-1,0,2
41.18313503265381,0,1,2,2,-2,-1,2,0,2
41.18314170837402,-4,-5,-8,-5,0,1,-2,-5,2
41.18549132347107,0,1,1,1,-1,0,2,2,2
41.18549561500549,2,-2,-1,1,-1,0,1,-2,2
41.18676137924194,0,-2,0,-1,-2,-1,-2,-3,2
41.186766147613525,2,3,3,6,1,1,2,1,2
41.21134877204895,-2,0,0,-1,1,-1,-1,-1,2
41.211352825164795,-1,-2,-2,-4,-1,-2,-2,-1,2
41.212406158447266,2,0,1,2,1,0,0,0,2
41.21240997314453,3,0,0,-1,-3,-2,-2,-1,2
41.21741819381714,-1,-2,-1,-1,-1,-3,-1,-2,2
41.217424154281616,2,1,0,-2,-2,-1,1,-2,2
41.224387884140015,-3,-4,-2,-2,1,-2,0,-1,2
41.22439241409302,-1,-1,0,2,-1,-1,-2,-1,2
41.25758719444275,-1,-2,-2,-8,-6,-2,-3,-2,2
41.25759148597717,0,1,-1,-3,1,-2,0,0,2
41.25862979888916,0,1,0,-1,0,-1,0,-3,2
41.258633613586426,1,0,0,-2,-1,0,1,-2,2
41.26190686225891,3,-2,2,4,0,3,1,1,2
41.261911153793335,-4,-5,-2,1,1,2,-3,0,2
41.28677940368652,0,-3,-3,-2,-3,-4,-4,-1,2
41.286784648895264,1,1,1,2,1,-2,1,2,2
41.28937816619873,0,2,3,2,0,1,0,0,2
41.289382219314575,-2,-3,-2,-1,-3,-2,-1,-3,2
41.29055690765381,0,0,-2,-3,-1,1,-1,1,2
41.290560483932495,1,1,-1,-2,-2,-1,0,2,2
41.30011701583862,0,0,-3,0,0,0,0,-3,2
41.30012345314026,-2,0,-2,1,0,1,-2,-1,2
41.31556582450867,-1,-1,0,0,-1,0,2,0,2
41.315571784973145,-1,0,-1,1,-1,-1,-1,0,2
