,time,chanel1,chanel2,chanel3,chanel4,chanel5,chanel6,chanel7,chanel8,position
0,13.646734952926636,44,46,43,113,97,62,51,33,1
1,13.661039352416992,40,44,44,109,97,57,52,36,1
2,13.684271335601807,40,42,42,109,92,50,53,36,1
3,13.706738233566284,43,43,45,87,101,61,59,39,1
4,13.721065521240234,42,43,46,80,107,64,60,40,1
5,14.140943765640259,135,255,123,84,109,100,140,157,1
6,14.163424491882324,142,262,124,83,107,98,171,160,1
7,14.187214851379395,158,263,133,90,113,109,203,156,1
8,14.201004028320312,156,237,125,82,108,103,211,163,1
9,14.223450183868408,163,250,133,87,111,104,235,173,1
10,14.254388332366943,169,249,115,79,99,89,231,181,1
11,14.269640445709229,168,252,114,75,90,85,228,198,1
12,14.283387660980225,159,250,99,66,81,73,212,193,1
13,14.306578636169434,153,255,103,80,89,71,205,189,1
14,14.328661441802979,148,269,113,90,94,69,214,196,1
15,14.350922107696533,113,279,130,124,135,86,253,168,1
16,14.375531673431396,103,258,125,124,137,87,247,142,1
17,14.40356731414795,104,264,135,127,143,89,245,133,1
18,14.426001071929932,104,257,131,130,141,90,246,129,1
19,14.45674443244934,101,224,114,118,135,89,211,106,1
20,14.653710842132568,90,202,73,85,97,79,130,96,1
21,14.673264265060425,94,175,71,77,90,75,121,92,1
22,14.695934772491455,96,176,75,77,90,74,119,94,1
23,16.129460096359253,57,102,56,188,97,60,62,58,1
24,16.15211272239685,57,95,58,259,107,56,62,60,1
25,16.173831939697266,59,95,63,286,131,70,70,63,1
26,16.18988585472107,59,97,68,280,131,67,71,60,1
27,16.2117600440979,54,85,62,310,137,71,70,54,1
28,16.234480381011963,55,78,58,309,143,76,73,53,1
29,16.249335527420044,53,76,56,254,143,76,72,49,1
30,17.255579710006714,44,56,48,150,98,53,72,45,1
31,17.27637481689453,53,68,72,136,115,67,80,50,1
32,17.293043613433838,55,77,75,161,117,68,82,51,1
33,17.316118240356445,64,89,93,176,146,76,73,45,1
34,17.343568801879883,63,91,94,181,151,77,73,41,1
35,17.35305094718933,62,89,90,179,153,75,74,38,1
36,17.382824897766113,52,78,77,176,131,61,64,32,1
37,17.403491973876953,54,69,75,141,124,59,61,31,1
38,19.242007970809937,35,43,39,105,73,40,45,33,1
39,19.25802493095398,35,43,39,99,69,42,44,33,1
40,19.278579711914062,33,41,37,130,76,40,42,36,1
41,19.3011372089386,36,47,39,128,74,38,45,36,1
42,19.32366943359375,33,43,34,127,69,35,40,30,1
43,19.34618043899536,35,40,35,123,66,32,39,30,1
44,19.361472606658936,40,43,39,119,72,31,43,30,1
45,19.37574553489685,39,44,41,85,65,28,45,26,1
46,19.398775100708008,36,39,40,77,64,32,43,25,1
47,19.421444177627563,35,37,39,75,59,32,42,27,1
48,19.436277151107788,33,36,37,70,57,31,42,25,1
49,19.458698749542236,34,39,36,75,60,37,46,34,1
50,19.481234550476074,36,39,33,73,63,38,43,37,1
51,19.50381374359131,44,48,33,71,66,41,45,39,1
52,19.518706560134888,46,48,34,71,65,41,43,40,1
53,19.54122042655945,48,51,35,81,67,44,47,42,1
54,19.55685520172119,45,48,35,80,62,39,41,37,1
55,19.578338146209717,45,46,36,81,61,39,41,37,1
56,20.22366714477539,36,52,48,73,68,40,44,29,1
57,20.238744735717773,36,58,46,69,64,42,41,28,1
58,20.261515140533447,35,56,46,69,68,42,42,33,1
59,20.283621311187744,35,55,42,51,54,31,39,32,1
60,21.50662064552307,37,50,48,96,80,43,44,40,1
61,21.521335124969482,37,48,45,96,80,40,40,41,1
62,21.543620109558105,40,45,45,95,79,42,44,43,1
63,21.568119049072266,41,40,41,79,67,38,42,40,1
64,21.581143140792847,43,43,42,80,68,41,43,38,1
65,21.60413384437561,38,35,37,75,65,35,39,36,1
66,21.62622880935669,37,39,42,78,63,36,41,37,1
67,21.641339540481567,37,37,40,84,64,40,37,30,1
68,21.66369938850403,34,38,39,85,64,39,37,29,1
69,21.69440007209778,32,38,38,80,59,37,37,28,1
70,21.708754062652588,36,44,44,87,64,41,42,31,1
71,21.725677251815796,36,41,39,86,68,40,41,30,1
72,21.746230363845825,35,40,38,73,70,35,41,28,1
73,21.761528730392456,41,48,41,72,76,39,45,34,1
74,21.783671855926514,45,54,51,87,93,47,58,39,1
75,21.80615520477295,40,50,48,85,93,45,55,37,1
76,21.82876229286194,45,55,55,87,96,52,61,42,1
77,21.844552993774414,46,54,53,82,90,51,61,44,1
78,21.874420166015625,45,53,55,92,97,51,65,43,1
79,21.88884663581848,42,48,46,85,84,44,52,39,1
80,21.903280019760132,42,48,52,90,87,44,59,44,1
81,21.92619228363037,39,45,49,86,81,35,53,39,1
82,21.94877791404724,44,46,53,89,85,42,57,40,1
83,21.972132921218872,41,43,50,84,78,42,50,37,1
84,21.986592054367065,41,40,49,87,79,43,50,37,1
85,22.008903980255127,40,38,43,77,67,39,40,32,1
86,22.025652170181274,40,44,48,92,75,43,45,36,1
87,22.04739761352539,34,44,46,107,81,40,41,34,1
88,22.07698965072632,40,45,49,108,82,37,45,34,1
89,22.083661794662476,39,45,48,99,79,37,45,34,1
90,22.106374740600586,40,46,49,100,80,42,50,36,1
91,22.12881851196289,41,41,47,92,71,42,47,34,1
92,22.14389991760254,40,38,43,74,63,39,45,33,1
93,22.166483879089355,36,35,40,76,59,39,45,36,1
94,22.188804864883423,39,41,48,79,70,38,47,36,1
95,22.204147338867188,39,41,50,79,75,37,46,37,1
96,22.226210117340088,39,45,48,72,73,33,45,38,1
97,22.24976110458374,41,47,52,70,73,33,45,37,1
98,22.263681173324585,41,45,50,63,74,31,39,33,1
99,22.287419319152832,42,41,44,62,69,36,44,34,1
100,22.309301614761353,40,40,43,67,66,32,40,30,1
101,22.324037790298462,39,41,45,81,75,39,40,31,1
102,22.345876455307007,37,45,43,85,77,40,40,34,1
103,22.368159532546997,39,47,49,98,94,45,46,38,1
104,22.383854627609253,44,49,57,112,102,48,45,37,1
105,22.406234979629517,49,56,62,117,105,56,49,41,1
106,22.428854942321777,49,54,62,111,105,54,51,41,1
107,22.443767547607422,49,50,61,110,103,55,50,40,1
108,22.466206550598145,47,50,56,98,87,54,47,39,1
109,22.488850355148315,42,48,47,85,76,50,44,39,1
110,22.504055500030518,37,42,41,79,72,45,43,35,1
111,22.526952028274536,34,35,34,74,63,41,38,33,1
112,22.549437284469604,36,36,37,71,62,40,40,31,1
113,22.56385850906372,34,35,37,68,60,37,38,28,1
114,22.590011835098267,33,36,39,69,62,34,38,27,1
115,22.6087908744812,31,34,38,89,76,31,40,30,1
116,22.62384271621704,31,33,40,93,73,28,40,27,1
117,22.646263599395752,38,42,50,100,83,36,47,34,1
118,22.66973638534546,41,45,52,107,93,47,54,39,1
119,22.683660745620728,40,42,51,109,97,47,54,42,1
120,22.706432580947876,46,50,54,105,90,48,52,43,1
121,22.728493690490723,50,56,60,109,98,51,55,46,1
122,22.743463039398193,46,51,55,104,90,48,50,42,1
123,22.7663152217865,43,48,52,98,78,37,44,37,1
124,22.79011368751526,47,52,61,99,74,41,48,38,1
125,22.811864376068115,42,45,55,77,66,39,47,34,1
126,22.826277017593384,42,39,46,68,61,41,50,34,1
127,22.849026679992676,40,36,42,68,61,41,49,32,1
128,22.87237548828125,41,36,43,74,62,41,48,38,1
129,22.886374473571777,36,32,29,62,56,37,41,34,1
130,22.90898370742798,37,38,31,67,61,42,42,36,1
131,22.932717323303223,33,39,32,72,66,40,38,35,1
132,22.94624972343445,37,40,32,77,71,44,39,39,1
133,22.968773126602173,39,43,30,69,70,47,45,38,1
134,22.99187684059143,39,39,30,69,70,47,45,38,1
135,23.006200790405273,36,35,29,67,70,42,43,37,1
136,23.028820037841797,34,32,26,78,58,41,44,37,1
137,23.05197238922119,30,29,28,70,53,34,43,35,1
138,23.066235303878784,32,35,36,76,58,32,41,34,1
139,23.089096784591675,33,39,40,87,60,35,42,32,1
140,23.112000465393066,36,39,40,93,60,36,40,33,1
141,23.126283884048462,35,41,44,87,66,34,37,32,1
142,23.157777309417725,36,41,44,89,68,36,38,32,1
143,23.172420740127563,34,35,38,83,60,32,36,33,1
144,23.185961484909058,35,40,41,75,64,33,39,36,1
145,23.208455801010132,47,62,61,114,104,53,60,45,1
146,23.23221707344055,48,66,63,114,105,53,60,43,1
147,23.246221780776978,53,68,67,122,112,56,63,44,1
148,23.26881718635559,51,67,66,125,113,57,62,43,1
149,23.292015552520752,50,64,63,126,109,54,61,43,1
150,23.30627989768982,36,44,44,88,70,36,45,33,1
151,23.32912015914917,37,38,43,93,72,36,47,33,1
152,23.367783069610596,32,33,35,83,60,30,39,32,1
153,23.369874477386475,32,35,35,82,64,30,38,30,1
154,23.389223098754883,31,29,36,93,72,32,35,28,1
155,23.41218400001526,36,31,39,102,77,34,34,29,1
156,23.426266193389893,41,33,42,96,79,43,41,32,1
157,23.457237243652344,39,33,42,103,83,44,42,31,1
158,23.472683906555176,40,34,44,106,91,49,44,32,1
159,23.486239910125732,43,40,44,96,86,52,50,35,1
160,23.508415460586548,40,41,44,86,87,51,52,35,1
161,23.531482934951782,34,37,38,90,86,45,44,33,1
162,23.546277284622192,38,38,41,85,84,45,44,32,1
163,23.570777893066406,37,43,43,89,81,40,46,35,1
164,23.591901063919067,35,41,41,94,83,39,42,34,1
165,23.606148719787598,33,40,37,90,77,36,37,32,1
166,23.637233018875122,33,41,38,86,73,37,40,32,1
167,23.652146577835083,31,46,39,83,76,37,43,33,1
168,23.666269063949585,31,41,36,73,71,43,43,32,1
169,23.689586877822876,34,45,43,68,75,44,44,30,1
170,23.71201992034912,42,50,51,83,92,50,53,37,1
171,23.734840869903564,42,50,48,80,91,50,50,42,1
172,23.74903964996338,40,45,44,77,86,49,49,42,1
173,23.7872257232666,43,48,47,82,86,47,47,42,1
174,23.7943913936615,41,43,44,83,83,42,43,43,1
175,23.809040307998657,34,35,35,74,70,36,34,38,1
176,23.831960439682007,45,49,49,83,84,48,50,39,1
177,23.85450506210327,50,58,57,91,88,48,56,41,1
178,23.86915111541748,47,58,58,88,89,46,59,39,1
179,23.891524076461792,47,61,58,94,100,47,61,39,1
180,23.914623975753784,47,61,57,104,104,46,59,38,1
181,23.92867422103882,37,51,49,97,92,35,46,32,1
182,23.95201015472412,31,41,43,91,88,33,37,30,1
183,23.974554777145386,33,39,39,91,85,31,33,30,1
184,23.98900294303894,37,41,39,81,69,35,34,28,1
185,24.01945185661316,38,42,43,77,68,34,40,33,1
186,24.034526109695435,36,40,42,75,66,30,39,30,1
187,24.048567295074463,36,43,42,79,75,35,42,30,1
188,24.071606874465942,36,48,47,92,82,37,48,36,1
189,24.09447932243347,33,43,44,92,81,32,46,37,1
190,24.10891366004944,36,46,47,84,72,33,45,35,1
191,24.1320641040802,38,48,46,83,74,34,46,39,1
192,24.15451192855835,40,47,44,88,69,30,43,39,1
193,24.169151782989502,36,40,36,72,65,30,38,36,1
194,24.193564653396606,34,38,40,66,61,30,39,34,1
195,24.214881658554077,27,33,33,67,65,33,36,33,1
196,24.228782653808594,28,30,35,67,65,35,37,30,1
197,24.25195622444153,28,31,33,59,61,39,40,29,1
198,24.27493453025818,31,28,34,57,54,39,38,31,1
199,24.288477659225464,33,29,31,62,59,41,40,34,1
200,24.311595916748047,33,31,31,59,55,38,38,33,1
201,24.342249155044556,29,31,30,59,55,36,36,31,1
202,24.349141359329224,28,31,35,63,53,35,37,31,1
203,24.372357606887817,28,34,35,65,55,35,42,28,1
204,24.394514083862305,32,36,37,62,50,38,42,27,1
205,24.408867120742798,32,33,37,68,59,39,45,25,1
206,24.432231903076172,33,35,36,76,63,41,46,29,1
207,24.454519271850586,35,35,35,69,65,38,43,27,1
208,24.46927809715271,34,32,34,76,73,37,38,27,1
209,24.492066621780396,35,32,35,77,76,31,38,26,1
210,24.522915363311768,36,35,36,73,66,33,36,30,1
211,24.52891206741333,41,37,42,74,69,30,35,29,1
212,24.552666187286377,41,40,42,76,73,33,37,31,1
213,24.574472188949585,41,41,46,75,64,37,40,32,1
214,24.588916301727295,40,42,52,85,69,40,44,33,1
215,24.6119966506958,40,42,51,88,75,39,45,31,1
216,24.63456153869629,38,42,51,83,68,37,45,32,1
217,24.64890146255493,37,40,51,80,63,35,44,33,1
218,24.67204713821411,38,40,47,77,64,35,40,35,1
219,24.69459581375122,33,35,38,67,56,33,37,36,1
220,24.71653962135315,33,34,39,65,58,37,39,36,1
221,24.73225164413452,32,32,34,62,60,37,40,35,1
222,24.75463104248047,32,32,37,64,63,40,42,35,1
223,24.777302026748657,32,39,44,65,71,44,46,34,1
224,24.792102813720703,35,42,49,71,76,42,52,34,1
225,24.814652681350708,38,48,53,73,74,43,54,35,1
226,24.837016582489014,39,49,56,79,78,47,55,38,1
227,24.8520028591156,40,48,56,81,83,47,56,38,1
228,24.875553369522095,40,43,54,80,77,45,54,40,1
229,24.897046327590942,41,43,53,76,72,47,46,42,1
230,24.91168999671936,39,37,49,72,72,45,42,40,1
231,24.934643507003784,38,37,46,74,74,43,40,36,1
232,24.95735263824463,41,38,42,76,72,41,38,34,1
233,24.97247576713562,40,39,41,73,70,37,36,32,1
234,24.99458885192871,41,40,37,73,71,35,36,26,1
235,25.02576732635498,41,38,37,82,79,40,37,27,1
236,25.032186031341553,41,39,38,80,78,41,35,27,1
237,25.054722785949707,36,37,37,79,70,39,35,29,1
238,25.077077865600586,39,39,39,79,78,46,45,29,1
239,25.09137225151062,37,39,42,86,79,47,51,31,1
240,25.114494562149048,37,39,43,80,68,44,51,31,1
241,25.13711667060852,35,39,46,80,62,41,52,34,1
242,25.15204358100891,38,40,48,75,69,41,53,34,1
243,25.17453694343567,34,39,47,77,63,34,48,34,1
244,25.197406768798828,31,34,41,68,62,32,41,32,1
245,25.21176266670227,30,33,39,65,59,30,40,33,1
246,25.234450101852417,34,34,35,65,59,33,43,38,1
247,25.257452249526978,30,32,33,70,50,32,40,37,1
248,25.271316289901733,32,32,35,65,52,33,39,37,1
249,25.302135229110718,35,34,38,62,49,41,43,39,1
250,25.31747317314148,36,38,38,68,62,44,43,36,1
251,25.331292152404785,36,38,38,69,68,42,38,31,1
252,25.35549306869507,40,38,39,66,68,45,40,30,1
253,25.37667989730835,38,37,38,72,73,47,39,31,1
254,25.391456365585327,36,37,37,82,79,41,37,28,1
255,25.422449588775635,35,34,37,77,69,36,37,30,1
256,25.436967372894287,31,33,36,73,65,36,37,28,1
257,25.451331853866577,29,33,33,74,66,38,39,30,1
258,25.474603414535522,35,40,38,69,59,38,41,29,1
259,25.497469902038574,39,43,47,66,60,45,48,32,1
260,25.511427402496338,39,43,49,73,65,46,49,33,1
261,25.53468346595764,44,47,54,73,87,50,53,36,1
262,25.55748462677002,42,48,56,82,93,47,50,33,1
263,25.579891204833984,39,43,52,83,94,44,48,34,1
264,25.594637155532837,36,41,43,78,90,39,37,32,1
265,25.617135763168335,36,40,41,70,87,39,35,34,1
266,25.639787673950195,35,40,40,71,74,40,39,36,1
267,25.654953956604004,36,39,37,56,64,41,43,36,1
268,25.677050352096558,35,38,35,55,65,39,42,36,1
269,25.699539184570312,35,38,36,52,61,37,45,35,1
270,25.714563369750977,38,40,40,71,69,36,47,33,1
271,25.73719096183777,37,34,37,72,56,25,43,29,1
272,25.75950527191162,41,37,37,76,60,30,41,29,1
273,25.77443838119507,43,44,40,79,62,34,41,29,1
274,25.80402708053589,48,49,44,83,69,35,44,31,1
275,25.819579124450684,47,52,43,74,71,37,41,33,1
276,25.834487676620483,45,54,42,68,71,37,37,32,1
277,25.857476949691772,40,51,43,67,67,33,36,33,1
278,25.879576444625854,45,50,52,79,73,33,46,41,1
279,25.89459991455078,43,46,52,80,76,35,45,39,1
280,25.917315006256104,41,40,50,76,66,33,45,36,1
281,25.93924832344055,47,44,55,81,69,40,51,36,1
282,25.954558849334717,46,44,55,83,72,39,51,35,1
283,25.976970672607422,42,40,48,76,67,42,44,24,1
284,25.999984741210938,38,36,46,82,70,49,46,30,1
285,26.014667987823486,39,37,45,84,75,49,47,32,1
286,26.037256240844727,33,33,41,81,77,48,42,33,1
287,26.059612274169922,34,32,40,100,85,51,43,32,1
288,26.073988437652588,31,32,39,97,85,49,46,32,1
289,26.097129106521606,39,37,40,91,77,41,42,29,1
290,26.11957859992981,42,39,42,90,76,40,42,30,1
291,26.133989095687866,40,37,41,91,73,39,39,28,1
292,26.15752339363098,40,37,40,68,63,36,39,30,1
293,26.179178953170776,40,36,38,64,56,36,33,30,1
294,26.194079399108887,33,34,39,68,58,37,39,31,1
295,26.217586755752563,27,31,36,66,53,37,37,30,1
296,26.24039626121521,29,31,35,62,54,35,36,30,1
297,26.254009246826172,33,33,37,67,64,34,39,30,1
298,26.277055025100708,38,37,41,72,72,36,49,34,1
299,26.30000615119934,38,34,35,67,71,36,45,31,1
300,26.31380343437195,38,33,37,67,71,38,46,30,1
301,26.33679699897766,39,35,39,67,67,38,47,30,1
302,26.36091923713684,35,36,41,65,58,38,45,28,1
303,26.374041080474854,32,34,42,71,66,44,41,27,1
304,26.39717984199524,30,35,42,68,67,42,39,26,1
305,26.419599056243896,29,35,42,67,67,41,39,26,1
306,26.442180156707764,30,33,42,70,68,42,40,27,1
307,26.457289934158325,30,30,37,72,71,44,41,29,1
308,26.48105025291443,35,34,39,72,67,39,44,28,1
309,26.493874311447144,41,35,41,74,69,40,47,31,1
310,26.517674207687378,43,34,41,75,71,38,47,32,1
311,26.547202110290527,43,36,45,77,72,37,47,37,1
312,26.5538809299469,43,35,46,78,70,38,51,39,1
313,26.5846951007843,36,30,39,69,56,36,43,42,1
314,26.599750518798828,31,31,37,68,51,37,42,40,1
315,26.622079610824585,37,38,44,83,62,47,56,44,1
316,26.638020038604736,42,37,40,78,66,47,58,39,1
317,26.659658908843994,44,38,40,71,65,45,55,38,1
318,26.683608531951904,44,40,44,82,65,43,56,36,1
319,26.696614503860474,43,37,43,86,66,41,54,37,1
320,26.727139711380005,38,32,37,71,55,32,42,34,1
321,26.742562532424927,28,33,36,76,50,33,37,33,1
322,26.757519721984863,31,36,37,75,53,35,35,31,1
323,26.779712438583374,36,37,34,69,59,37,34,32,1
324,26.804235458374023,36,38,38,68,65,44,38,31,1
325,26.817737340927124,38,40,39,86,71,45,44,32,1
326,26.841108560562134,49,49,50,94,86,51,54,37,1
327,26.862087726593018,45,46,47,93,87,49,53,36,1
328,26.877100229263306,44,48,50,98,88,50,55,36,1
329,26.899635791778564,44,48,48,96,84,44,53,36,1
330,26.9233558177948,43,46,48,90,81,43,49,33,1
331,26.937321186065674,35,36,41,88,78,38,40,32,1
332,26.95964741706848,35,37,42,89,77,40,39,33,1
333,26.982549905776978,32,33,40,80,76,39,37,31,1
334,26.997185468673706,34,35,41,92,84,41,35,32,1
335,27.02016019821167,39,42,45,92,88,41,38,35,1
336,27.042333841323853,37,41,41,87,79,37,38,33,1
337,27.056912899017334,38,40,41,87,79,35,39,32,1
338,27.079750776290894,40,43,40,85,88,39,46,36,1
339,27.101573944091797,38,41,38,84,86,38,47,36,1
340,27.1173574924469,31,35,32,76,79,35,43,33,1
341,27.139277696609497,28,33,32,79,85,38,46,33,1
342,27.16182518005371,29,33,31,77,86,37,45,34,1
343,27.176372289657593,29,29,31,76,74,29,40,30,1
344,27.19964075088501,31,31,34,61,67,31,40,32,1
345,27.22215723991394,32,33,32,57,65,32,39,31,1
346,27.24497961997986,32,35,31,45,58,32,35,29,1
347,27.259561777114868,33,38,35,50,57,37,34,29,1
348,27.2820565700531,33,40,33,54,53,43,32,28,1
349,27.30468773841858,33,38,32,63,65,44,34,31,1
350,27.31951332092285,35,39,36,70,77,45,42,34,1
351,27.342251300811768,38,42,40,74,77,45,47,38,1
352,27.364341735839844,38,39,39,74,78,45,50,38,1
353,27.37957763671875,37,36,40,81,79,41,50,40,1
354,27.402742862701416,35,37,41,73,69,39,48,37,1
355,27.416617393493652,32,32,38,72,55,37,42,34,1
356,27.440732717514038,34,31,36,72,59,38,42,30,1
357,27.46224856376648,34,37,34,76,57,33,40,34,1
358,27.47663140296936,35,42,34,66,59,33,39,32,1
359,27.500235080718994,35,42,33,81,70,34,39,30,1
360,27.522598028182983,47,51,45,87,80,41,49,42,1
361,27.54472851753235,43,49,45,90,80,39,45,43,1
362,27.55960464477539,43,47,46,91,84,37,48,39,1
363,27.589190244674683,45,50,49,93,87,38,52,42,1
364,27.60597562789917,47,50,48,82,81,38,52,41,1
365,27.621020793914795,36,41,38,75,70,29,42,29,1
366,27.64149022102356,41,46,38,72,67,32,44,28,1
367,27.671998500823975,44,49,41,74,68,40,49,31,1
368,27.680717706680298,39,42,38,70,59,39,44,27,1
369,27.70143461227417,45,48,50,79,65,46,51,32,1
370,27.724184274673462,47,48,52,76,70,48,53,36,1
371,27.746464014053345,46,46,51,79,77,46,54,38,1
372,27.761404991149902,49,44,50,74,77,45,51,37,1
373,27.784016132354736,53,48,52,86,89,49,55,38,1
374,27.801452159881592,50,44,45,95,98,46,49,35,1
375,27.821913719177246,49,47,49,104,105,51,50,34,1
376,27.844019412994385,48,46,47,100,97,50,48,35,1
377,27.860944509506226,42,43,45,100,97,46,42,33,1
378,27.881405115127563,39,40,41,91,86,44,37,33,1
379,27.904062032699585,37,41,42,79,76,41,37,33,1
380,27.921269416809082,41,45,45,87,78,45,46,37,1
381,27.941304445266724,43,47,45,88,81,49,49,36,1
382,27.96388339996338,43,48,46,82,76,50,52,37,1
383,27.980668544769287,42,48,48,95,81,50,52,37,1
384,28.0021755695343,44,51,48,97,84,49,50,36,1
385,28.023948192596436,40,48,43,87,79,42,44,36,1
386,28.0408616065979,38,46,43,86,77,39,41,35,1
387,28.06138801574707,38,45,43,88,75,38,39,38,1
388,28.083823680877686,37,44,42,85,73,36,42,38,1
389,28.114585161209106,35,37,38,78,66,37,44,38,1
390,28.121397972106934,32,32,33,65,56,37,40,34,1
391,28.143863916397095,44,49,47,77,84,45,55,41,1
392,28.16153359413147,43,47,46,75,86,44,54,37,1
393,28.181400537490845,44,49,48,68,86,47,54,38,1
394,28.203901290893555,45,51,49,74,87,46,53,41,1
395,28.22591471672058,44,49,49,77,86,44,52,39,1
396,28.24174475669861,29,32,36,69,57,36,37,30,1
397,28.263936519622803,34,37,38,70,55,34,42,31,1
398,28.280944347381592,32,33,35,75,57,38,43,31,1
399,28.30154824256897,35,38,38,70,56,38,42,32,1
400,28.324246644973755,36,43,43,73,62,41,48,34,1
401,28.340004682540894,37,43,46,70,65,41,49,35,1
402,28.36099648475647,34,40,49,73,67,40,46,38,1
403,28.384007930755615,35,39,48,67,62,33,43,36,1
404,28.402118921279907,31,31,46,69,59,32,42,31,1
405,28.42160654067993,38,37,48,74,68,33,41,36,1
406,28.445371627807617,38,40,46,78,76,39,42,36,1
407,28.469011306762695,37,38,41,78,79,40,42,35,1
408,28.481416940689087,36,40,43,81,83,42,44,38,1
409,28.503958702087402,44,52,58,102,100,55,56,44,1
410,28.52642035484314,38,48,55,103,97,53,55,41,1
411,28.54322624206543,41,47,56,100,89,48,53,41,1
412,28.563952207565308,43,49,58,101,86,50,53,41,1
413,28.586690664291382,44,50,59,106,83,52,53,41,1
414,28.603521585464478,39,39,44,84,60,40,41,36,1
415,28.624661207199097,42,36,40,74,48,38,41,32,1
416,28.646757125854492,41,41,44,81,58,46,45,35,1
417,28.670775890350342,44,50,51,79,61,45,51,36,1
418,28.68403434753418,42,49,48,65,60,42,50,34,1
419,28.706424951553345,40,50,48,67,66,41,51,32,1
420,28.723994970321655,40,50,48,66,65,41,48,34,1
421,28.743903398513794,44,52,55,61,62,39,51,34,1
422,28.766388416290283,40,43,46,57,57,37,43,33,1
423,28.78301978111267,40,41,45,62,53,35,42,33,1
424,28.804102897644043,42,42,47,66,57,35,44,35,1
425,28.82642412185669,40,45,51,85,65,38,47,35,1
426,28.84324860572815,35,37,38,86,69,33,42,31,1
427,28.864052534103394,34,36,39,89,76,38,42,30,1
428,28.886578798294067,32,36,40,87,77,36,42,33,1
429,28.903345346450806,29,33,40,85,72,38,38,31,1
430,28.92397451400757,24,27,31,75,66,36,33,30,1
431,28.946490049362183,23,27,33,68,59,33,31,30,1
432,28.96444582939148,23,29,32,67,54,29,34,31,1
433,28.991127252578735,23,31,34,72,56,33,38,29,1
434,29.00619149208069,24,29,29,72,54,30,35,29,1
435,29.02342987060547,38,40,37,67,64,35,48,32,1
436,29.04426646232605,38,39,35,69,61,38,48,32,1
437,29.066646337509155,41,40,41,76,63,40,54,32,1
438,29.083765745162964,42,40,43,80,72,43,55,32,1
439,29.103944778442383,44,44,48,92,78,46,58,32,1
440,29.126712799072266,34,34,44,88,71,44,48,34,1
441,29.14331078529358,41,41,51,92,82,47,61,40,1
442,29.163992166519165,40,38,46,87,80,44,54,40,1
443,29.18688201904297,40,38,47,88,73,41,51,39,1
444,29.204169273376465,38,39,45,79,73,39,51,41,1
445,29.22455930709839,40,43,46,80,75,37,52,40,1
446,29.246398210525513,34,39,40,78,69,32,38,33,1
447,29.26456332206726,33,40,40,88,74,37,37,31,1
448,29.284038305282593,34,41,42,78,75,41,42,31,1
449,29.314095973968506,37,38,39,73,67,42,44,30,1
450,29.32340145111084,36,36,42,74,64,44,48,28,1
451,29.344030380249023,35,34,42,68,59,43,47,31,1
452,29.36676335334778,35,32,40,57,49,39,49,33,1
453,29.391513347625732,33,33,37,59,44,34,48,32,1
454,29.404268503189087,32,31,39,67,53,35,47,31,1
455,29.426504373550415,31,29,35,67,55,33,44,32,1
456,29.449016332626343,32,31,35,67,54,34,43,29,1
457,29.466310739517212,32,30,37,69,58,35,41,27,1
458,29.486525535583496,38,39,46,70,66,41,42,31,1
459,29.509164333343506,37,40,44,62,60,36,38,32,1
460,29.524229049682617,41,40,44,68,67,40,43,31,1
461,29.546364545822144,46,44,48,73,77,43,49,31,1
462,29.56885004043579,47,48,53,87,86,44,49,30,1
463,29.583693265914917,43,42,48,88,88,40,45,27,1
464,29.613972663879395,47,50,51,95,102,46,53,27,1
465,29.629434823989868,44,50,50,91,97,41,47,27,1
466,29.644054174423218,44,47,45,85,90,39,41,27,1
467,29.667198181152344,44,44,40,66,81,36,45,30,1
468,29.688698768615723,46,47,48,68,84,44,53,32,1
469,29.70405125617981,42,38,44,59,67,39,44,30,1
470,29.726529836654663,41,38,43,58,65,39,44,31,1
471,29.757288932800293,38,37,42,60,64,38,44,31,1
472,29.764727354049683,40,44,50,76,79,43,51,33,1
473,29.786633729934692,37,43,47,87,85,38,47,36,1
474,29.80905771255493,42,49,52,89,87,42,50,39,1
475,29.82401967048645,45,54,54,94,89,43,51,40,1
476,29.846988201141357,42,52,53,99,90,43,51,40,1
477,29.869359254837036,41,54,51,98,89,49,45,39,1
478,29.89163565635681,40,51,48,89,78,50,46,36,1
479,29.906566619873047,39,48,48,91,78,46,45,35,1
480,29.930654048919678,37,46,48,92,83,48,44,37,1
481,29.94351887702942,37,46,50,89,81,49,42,40,1
482,29.966477155685425,36,43,51,80,71,41,41,42,1
483,29.989198684692383,41,50,58,87,74,39,43,42,1
484,30.0039701461792,38,50,54,86,75,42,43,41,1
485,30.027427673339844,39,52,55,79,74,40,45,39,1
486,30.0496346950531,42,52,54,74,74,40,46,36,1
487,30.064353942871094,45,54,57,81,82,40,52,32,1
488,30.087547063827515,42,48,47,66,69,39,46,36,1
489,30.109077215194702,45,46,48,69,75,36,45,35,1
490,30.125584363937378,43,43,48,72,74,38,47,35,1
491,30.146567583084106,40,42,46,76,72,37,46,37,1
492,30.169013500213623,34,34,38,66,63,37,37,36,1
493,30.1839656829834,40,37,40,68,67,35,40,31,1
494,30.20703411102295,38,35,38,68,68,40,42,31,1
495,30.229114532470703,43,43,48,95,97,47,47,34,1
496,30.243873834609985,43,45,51,97,102,48,47,33,1
497,30.266435384750366,46,49,54,97,103,46,49,32,1
498,30.289085388183594,41,48,54,99,101,49,47,33,1
499,30.30414342880249,42,50,54,93,94,45,45,35,1
500,30.32884645462036,36,41,42,66,59,36,34,32,1
501,30.348923444747925,44,50,51,74,65,43,43,34,1
502,30.363951921463013,44,50,51,82,63,44,42,35,1
503,30.386462450027466,42,49,51,77,68,42,46,36,1
504,30.40976071357727,43,50,55,82,81,44,52,35,1
505,30.431736946105957,43,51,56,79,79,42,52,33,1
506,30.455684661865234,34,40,45,70,69,35,45,31,1
507,30.468968629837036,33,37,40,64,69,33,43,31,1
508,30.49187159538269,32,37,37,73,65,33,41,28,1
509,30.506612062454224,31,34,31,69,51,32,33,27,1
510,30.5285542011261,33,40,34,88,72,35,41,30,1
511,30.551714658737183,33,39,34,95,77,34,42,32,1
512,30.56647777557373,34,38,30,92,76,36,43,31,1
513,30.589193105697632,33,35,32,91,73,34,42,31,1
514,30.611589670181274,36,36,33,91,73,34,43,37,1
515,30.63400435447693,32,32,32,72,51,31,36,35,1
516,30.650946617126465,34,34,33,62,43,35,37,35,1
517,30.672645807266235,41,35,40,70,47,33,34,35,1
518,30.686028242111206,41,36,38,64,51,32,36,35,1
519,30.709296226501465,42,36,38,68,55,33,35,32,1
520,30.731040239334106,44,35,37,71,58,35,38,33,1
521,30.74656629562378,48,34,40,71,60,35,37,33,1
522,30.769360780715942,44,34,36,71,60,37,39,34,1
523,30.79146456718445,44,35,38,83,64,39,40,36,1
524,30.80750870704651,42,34,36,77,58,36,36,37,1
525,30.829022645950317,39,34,37,79,61,33,35,37,1
526,30.85169553756714,35,37,33,82,62,34,36,36,1
527,30.866779327392578,35,41,32,76,65,33,36,38,1
528,30.889593601226807,34,39,31,61,64,31,35,37,1
529,30.9118173122406,31,39,32,64,66,33,37,34,1
530,30.926942348480225,30,38,33,70,68,36,38,34,1
531,30.951139211654663,30,40,35,65,70,37,39,34,1
532,30.979849815368652,27,37,36,69,71,38,40,33,1
533,30.986856937408447,30,38,38,78,68,38,42,32,1
534,31.009247064590454,31,34,37,77,68,36,44,32,1
535,31.031622886657715,31,34,35,65,64,35,44,30,1
536,31.047486305236816,32,33,39,68,58,31,41,29,1
537,31.069051504135132,37,34,42,76,61,31,41,28,1
538,31.091755628585815,39,37,45,74,69,35,43,30,1
539,31.106852054595947,40,40,44,77,70,35,46,29,1
540,31.129509925842285,47,48,51,87,84,39,52,31,1
541,31.15160894393921,47,46,47,85,84,37,52,33,1
542,31.16662883758545,44,44,44,73,77,37,54,36,1
543,31.18904423713684,42,43,41,73,79,37,52,40,1
544,31.21168613433838,41,43,43,84,85,39,49,41,1
545,31.226490020751953,32,32,36,79,74,34,40,40,1
546,31.24911665916443,32,34,37,79,74,35,41,38,1
547,31.279679536819458,36,37,40,91,87,45,47,38,1
548,31.286397695541382,35,37,42,88,85,46,49,35,1
549,31.309907913208008,36,38,44,78,80,47,52,35,1
550,31.331497192382812,37,46,44,81,83,50,54,36,1
551,31.354728937149048,42,52,51,82,86,52,56,38,1
552,31.369131088256836,41,51,52,70,73,43,53,38,1
553,31.39109492301941,42,52,51,71,69,40,49,35,1
554,31.41408348083496,43,53,48,69,67,38,47,35,1
555,31.429072618484497,42,46,47,69,61,35,47,39,1
556,31.460219383239746,37,41,42,71,60,34,49,40,1
557,31.47442078590393,33,38,37,71,56,33,43,37,1
558,31.489481210708618,39,39,44,80,66,35,47,42,1
559,31.511725187301636,38,39,46,82,69,37,46,43,1
560,31.534544944763184,39,39,49,75,68,36,46,40,1
561,31.557299613952637,45,48,55,80,72,37,49,41,1
562,31.572330236434937,45,51,57,80,76,39,51,42,1
563,31.594101905822754,41,48,50,65,65,38,51,37,1
564,31.60908031463623,41,47,49,66,73,40,53,37,1
565,31.631771326065063,41,48,49,82,84,42,51,37,1
566,31.65410327911377,37,40,45,76,85,45,50,39,1
567,31.66909432411194,36,37,42,74,83,42,46,37,1
568,31.699999570846558,35,37,42,77,85,44,42,37,1
569,31.714031219482422,40,41,47,86,84,43,42,35,1
570,31.729195594787598,40,41,48,78,81,42,42,34,1
571,31.759885549545288,40,42,52,93,82,37,38,28,1
572,31.77417778968811,48,50,58,98,92,44,45,34,1
573,31.791483640670776,47,50,57,97,92,42,46,32,1
574,31.812026500701904,50,54,60,106,99,44,50,36,1
575,31.834161281585693,49,53,56,100,93,46,50,36,1
576,31.849178314208984,45,50,50,84,87,46,47,36,1
577,31.872125148773193,42,49,49,95,87,45,46,35,1
578,31.894063234329224,42,49,50,97,92,46,47,35,1
579,31.90907096862793,35,42,42,80,80,40,42,29,1
580,31.931517362594604,40,47,47,85,81,40,45,32,1
581,31.962249994277954,47,58,57,106,94,44,50,32,1
582,31.969048500061035,45,54,56,96,91,41,50,31,1
583,31.991593599319458,47,56,58,98,88,39,49,34,1
584,32.014039754867554,45,54,57,93,83,40,47,35,1
585,32.029261350631714,41,48,53,91,82,38,44,34,1
586,32.05963754653931,32,33,39,75,69,34,40,32,1
587,32.07405114173889,28,31,32,70,60,30,33,29,1
588,32.091020584106445,27,33,33,68,57,31,34,28,1
589,32.11327290534973,27,32,32,72,57,29,35,25,1
590,32.13437604904175,30,34,33,74,62,32,35,27,1
591,32.148967027664185,37,44,41,71,65,34,45,32,1
592,32.1798369884491,40,42,41,71,65,36,48,35,1
593,32.202566623687744,40,40,41,69,66,38,48,37,1
594,32.209033250808716,46,44,43,78,77,48,52,39,1
595,32.24031186103821,45,44,41,72,71,47,52,37,1
596,32.25405693054199,41,39,36,69,64,44,46,37,1
597,32.26900935173035,38,41,38,70,67,43,45,38,1
598,32.291364908218384,37,38,33,68,61,39,43,35,1
599,32.31405806541443,35,39,36,60,55,34,40,36,1
600,32.33698010444641,36,41,40,72,62,36,40,38,1
601,32.35203313827515,34,36,39,70,63,36,38,34,1
602,32.382288217544556,36,38,41,74,68,36,37,31,1
603,32.39697241783142,38,40,46,77,76,41,46,34,1
604,32.41165208816528,36,42,48,78,77,36,44,35,1
605,32.43455266952515,36,42,46,74,71,40,44,33,1
606,32.45691776275635,39,43,46,79,76,44,45,34,1
607,32.47157955169678,47,53,51,90,88,51,54,37,1
608,32.49416136741638,49,56,54,91,87,50,52,37,1
609,32.51665496826172,47,52,48,86,79,52,52,34,1
610,32.53158664703369,49,54,51,84,84,49,54,34,1
611,32.55545926094055,47,54,50,82,80,44,52,34,1
612,32.57667875289917,41,44,45,82,66,36,47,32,1
613,32.59243679046631,37,40,35,81,60,31,42,32,1
614,32.62192440032959,36,40,35,87,63,29,41,33,1
615,32.64425182342529,33,34,30,86,62,26,38,32,1
616,32.651702880859375,38,40,35,92,80,36,42,37,1
617,32.674306869506836,34,37,30,75,73,35,38,37,1
618,32.696654319763184,34,36,30,71,74,38,37,35,1
619,32.71158266067505,35,37,32,66,72,39,36,34,1
620,32.73406744003296,37,39,34,64,73,39,42,34,1
621,32.756876945495605,32,35,31,50,58,36,42,29,1
622,32.772616386413574,33,33,34,58,63,37,46,30,1
623,32.79463315010071,39,49,54,76,89,45,55,37,1
624,32.81687617301941,38,48,55,78,98,45,56,37,1
625,32.831544160842896,36,48,56,89,96,46,53,40,1
626,32.854148387908936,37,46,54,92,95,43,52,41,1
627,32.87677192687988,39,51,53,88,93,44,50,42,1
628,32.8911566734314,32,41,34,75,73,34,38,37,1
629,32.91416907310486,43,49,44,87,80,43,49,45,1
630,32.93663787841797,43,49,46,80,79,43,48,41,1
631,32.951658725738525,43,50,47,78,78,46,45,40,1
632,32.97422218322754,41,47,47,82,81,47,43,38,1
633,32.99661469459534,44,46,49,88,84,48,51,40,1
634,33.011642932891846,36,39,40,76,72,41,40,33,1
635,33.03417444229126,38,40,39,75,72,39,39,33,1
636,33.05663061141968,37,39,42,79,73,38,41,35,1
637,33.07430458068848,37,38,40,80,73,37,41,36,1
638,33.09422945976257,35,38,36,72,64,31,32,34,1
639,33.12531495094299,38,45,45,80,79,38,44,32,1
640,33.13436436653137,36,46,50,79,79,35,44,33,1
641,33.15434813499451,34,45,48,72,77,33,45,31,1
642,33.177529096603394,38,46,52,71,74,31,47,30,1
643,33.19989252090454,37,42,53,71,76,33,46,32,1
644,33.214242696762085,30,33,41,58,58,24,33,32,1
645,33.23711657524109,32,32,39,60,60,29,39,31,1
646,33.259464502334595,35,37,45,67,71,34,43,34,1
647,33.273903369903564,31,34,42,73,79,34,41,31,1
648,33.29687190055847,31,34,41,70,77,38,43,31,1
649,33.32052755355835,37,38,47,76,80,43,47,34,1
650,33.3341281414032,35,38,43,75,77,41,42,32,1
651,33.35672855377197,32,31,35,77,68,37,37,31,1
652,33.380218267440796,35,38,41,69,64,43,42,36,1
653,33.39419960975647,36,42,44,76,67,43,41,35,1
654,33.41679811477661,37,46,47,83,67,39,38,33,1
655,33.441280364990234,41,49,49,86,74,43,41,34,1
656,33.45462131500244,46,54,53,87,78,46,45,35,1
657,33.47740411758423,44,51,48,85,75,42,42,32,1
658,33.49984574317932,44,48,47,83,73,44,44,31,1
659,33.51414728164673,38,41,41,77,70,42,43,33,1
660,33.536702156066895,35,37,37,74,61,41,41,33,1
661,33.55980587005615,43,43,48,86,90,46,51,36,1
662,33.57412266731262,44,44,48,94,92,45,50,35,1
663,33.59663462638855,47,45,48,89,93,43,51,37,1
664,33.63565182685852,49,47,50,94,98,44,54,38,1
665,33.638070821762085,49,51,51,93,101,44,54,38,1
666,33.656763315200806,37,43,38,76,72,33,42,34,1
667,33.68044114112854,36,42,37,66,70,34,44,39,1
668,33.69437336921692,38,45,38,72,73,36,45,38,1
669,33.716933488845825,38,45,32,64,64,34,41,35,1
670,33.739978075027466,39,41,35,70,66,36,42,35,1
671,33.754252910614014,39,39,34,70,69,42,40,37,1
672,33.77718210220337,42,43,35,69,65,39,40,34,1
673,33.80013823509216,33,38,36,70,61,37,36,34,1
674,33.81375551223755,36,42,40,67,67,37,40,37,1
675,33.836230516433716,35,42,39,72,75,38,43,39,1
676,33.85987401008606,36,43,42,82,82,36,47,40,1
677,33.87467670440674,33,39,41,81,84,37,46,38,1
678,33.90479135513306,36,40,41,77,83,36,51,38,1
679,33.919838666915894,34,35,38,76,78,37,49,36,1
680,33.93412399291992,34,34,38,68,67,34,47,33,1
681,33.964966773986816,30,32,36,61,58,35,43,32,1
682,33.97987604141235,32,37,37,65,63,35,41,33,1
683,33.99434947967529,30,32,32,69,61,36,34,30,1
684,34.01702547073364,33,35,37,75,65,43,37,32,1
685,34.039851903915405,31,35,37,81,75,46,37,33,1
686,34.05420422554016,33,40,37,75,71,44,43,31,1
687,34.07673907279968,35,42,41,71,68,44,45,33,1
688,34.100332498550415,36,46,45,69,68,41,45,35,1
689,34.11410856246948,31,42,42,64,68,34,42,35,1
690,34.13665413856506,36,46,44,64,63,35,44,38,1
691,34.16037106513977,36,42,42,61,66,35,39,37,1
692,34.183069705963135,40,42,44,65,73,40,39,34,1
693,34.19671869277954,42,43,43,68,76,42,46,38,1
694,34.220335960388184,41,44,42,64,71,41,48,37,1
695,34.24242901802063,45,49,45,56,66,37,47,36,1
696,34.25738334655762,49,55,55,89,87,47,54,40,1
697,34.27983045578003,43,51,51,86,78,41,52,41,1
698,34.31004500389099,41,48,50,91,77,40,45,36,1
699,34.316903591156006,53,58,62,106,94,45,54,40,1
700,34.33979511260986,49,58,61,111,98,45,54,37,1
701,34.36256504058838,48,52,54,91,80,34,47,34,1
702,34.37674140930176,49,52,54,96,83,36,48,33,1
703,34.40794897079468,48,49,51,90,79,34,48,34,1
704,34.429847955703735,41,45,46,93,72,32,42,34,1
705,34.43668222427368,45,47,48,97,72,37,42,36,1
706,34.46036887168884,44,48,49,100,72,40,42,38,1
707,34.48189616203308,45,48,50,97,69,40,41,37,1
708,34.49668741226196,55,57,59,110,92,53,52,39,1
709,34.519859075546265,50,51,53,97,81,51,47,36,1
710,34.54238557815552,44,41,47,98,85,47,45,32,1
711,34.55673885345459,47,44,53,106,95,51,55,32,1
712,34.58013105392456,50,47,54,111,100,53,57,33,1
713,34.60259485244751,42,36,44,97,81,41,47,33,1
714,34.6166672706604,42,42,45,95,83,42,48,33,1
715,34.63935446739197,44,42,47,91,78,42,49,31,1
716,34.66232395172119,40,40,43,82,65,38,37,29,1
717,34.67687010765076,36,37,40,71,60,34,38,31,1
718,34.69990301132202,37,46,48,78,68,38,43,31,1
719,34.72244095802307,35,42,47,78,67,38,44,32,1
720,34.73664355278015,35,44,50,79,73,39,47,35,1
721,34.759649991989136,39,49,52,77,73,39,50,36,1
722,34.78241014480591,38,49,52,86,74,41,50,37,1
723,34.796847343444824,34,43,47,80,66,36,45,35,1
724,34.8201801776886,34,42,46,77,65,33,43,33,1
725,34.84247922897339,33,38,38,66,59,34,38,32,1
726,34.85720086097717,28,33,35,64,66,37,36,31,1
727,34.88740038871765,27,30,32,52,58,35,33,28,1
728,34.90236806869507,27,27,29,64,61,36,35,26,1
729,34.91685700416565,31,31,34,70,67,38,38,26,1
730,34.93997812271118,29,32,34,74,65,38,36,26,1
731,34.96179485321045,27,30,30,70,54,34,34,26,1
732,34.977211236953735,31,33,36,75,64,34,38,26,1
733,34.99960255622864,33,38,43,66,68,35,40,29,1
734,35.022448778152466,29,36,40,65,60,36,37,28,1
735,35.045056104660034,32,36,44,59,59,33,40,27,1
736,35.06051301956177,35,37,46,70,72,37,44,28,1
737,35.08247184753418,35,36,42,68,70,36,40,27,1
738,35.09680128097534,36,31,37,70,64,35,37,28,1
739,35.12749528884888,36,36,39,75,70,37,42,29,1
740,35.14304494857788,35,33,36,76,77,38,41,29,1
741,35.16461682319641,35,32,33,69,68,33,36,28,1
742,35.18704581260681,31,30,37,74,65,36,39,30,1
743,35.20239615440369,29,30,36,80,68,35,36,24,1
744,35.2251341342926,29,22,34,76,69,30,31,25,1
745,35.23991584777832,29,26,36,74,59,31,30,25,1
746,35.26247954368591,27,27,36,81,62,31,35,29,1
747,35.292964935302734,29,30,30,74,60,29,34,26,1
748,35.29942750930786,33,36,37,72,63,31,42,33,1
749,35.32248377799988,33,37,36,66,60,30,41,32,1
750,35.34440994262695,37,43,36,76,71,30,41,38,1
751,35.35965371131897,41,44,42,73,72,30,41,39,1
752,35.38237380981445,42,46,49,88,82,33,45,40,1
753,35.40490412712097,42,44,46,90,81,32,38,37,1
754,35.419565200805664,45,52,54,100,95,36,46,44,1
755,35.44336748123169,42,48,51,92,88,38,45,40,1
756,35.472590923309326,41,49,48,87,86,39,46,40,1
757,35.47934556007385,42,48,42,80,84,35,44,40,1
758,35.502408027648926,39,46,37,69,79,34,45,38,1
759,35.525269746780396,37,40,30,54,58,33,41,32,1
760,35.53932452201843,37,43,32,70,73,30,43,35,1
761,35.569907426834106,34,39,31,75,71,27,39,33,1
762,35.5849130153656,29,35,32,73,64,28,36,31,1
763,35.59953427314758,30,38,37,80,75,33,41,35,1
764,35.622411012649536,28,34,34,80,79,33,43,33,1
765,35.64608407020569,28,29,33,82,72,33,40,29,1
766,35.65912413597107,30,30,30,79,77,34,41,29,1
767,35.6827552318573,31,32,32,73,76,37,42,29,1
768,35.70518469810486,32,30,31,74,74,35,38,27,1
769,35.71947646141052,33,30,33,74,70,35,34,27,1
770,35.74261426925659,34,32,34,60,72,32,35,29,1
771,35.76583957672119,34,33,33,61,69,33,37,27,1
772,35.779083251953125,36,34,34,61,71,32,39,30,1
773,35.802284717559814,36,37,33,51,64,29,39,32,1
774,35.82579827308655,37,39,32,65,64,30,39,32,1
775,35.847888469696045,35,37,31,63,62,34,41,30,1
776,35.862473249435425,38,39,41,77,77,36,40,36,1
777,35.885135650634766,38,44,41,77,79,36,39,34,1
778,35.89928913116455,38,45,41,84,83,40,43,36,1
779,35.92293643951416,37,44,43,76,85,40,43,40,1
780,35.94501233100891,36,44,43,77,80,37,41,40,1
781,35.96757507324219,33,43,39,70,79,39,44,38,1
782,35.991013050079346,34,39,40,67,72,38,43,39,1
783,36.004900217056274,33,34,37,66,68,35,37,34,1
784,36.01921606063843,34,34,35,68,67,40,38,31,1
785,36.04241681098938,36,36,38,67,65,40,36,32,1
786,36.06510519981384,35,33,37,58,53,36,32,28,1
787,36.08822703361511,33,30,36,59,56,37,30,26,1
788,36.10251545906067,34,35,40,55,57,35,31,28,1
789,36.1256308555603,33,35,41,61,51,28,33,29,1
790,36.14764404296875,33,33,38,64,58,30,35,28,1
791,36.16210079193115,34,35,38,75,62,30,36,29,1
792,36.185046434402466,33,36,39,88,71,35,39,30,1
793,36.207454442977905,35,36,42,98,75,38,43,33,1
794,36.222415924072266,35,36,44,90,76,38,42,32,1
795,36.245136737823486,36,42,46,95,78,38,43,32,1
796,36.26742458343506,43,51,58,100,92,47,50,36,1
797,36.28253984451294,43,49,56,95,85,43,48,35,1
798,36.30520725250244,43,50,54,88,87,44,48,36,1
799,36.32739067077637,47,55,53,89,86,44,48,36,1
800,36.349894762039185,46,52,53,82,81,43,48,35,1
801,36.36498498916626,39,41,38,65,57,32,38,31,1
802,36.38741993904114,38,41,38,65,64,31,39,30,1
803,36.40410780906677,40,40,39,59,57,30,36,28,1
804,36.424925804138184,43,40,40,74,64,35,43,33,1
805,36.44762468338013,42,38,37,78,73,36,43,36,1
806,36.46291494369507,43,39,42,79,74,38,44,35,1
807,36.492690563201904,49,50,47,114,71,43,50,37,1
808,36.50756478309631,50,53,47,118,73,42,48,35,1
809,36.52267408370972,44,48,44,112,74,39,42,30,1
810,36.54485106468201,45,50,46,119,78,42,47,28,1
811,36.568074464797974,49,58,53,138,91,44,56,28,1
812,36.58194637298584,45,50,47,109,88,39,51,26,1
813,36.60558271408081,40,45,44,114,87,41,50,24,1
814,36.62753105163574,43,46,46,115,83,40,52,24,1
815,36.6418559551239,43,47,46,121,80,41,51,26,1
816,36.66504955291748,35,35,35,101,65,35,40,26,1
817,36.68757748603821,34,32,35,107,70,37,40,27,1
818,36.701683044433594,36,32,38,106,73,37,42,28,1
819,36.72539758682251,33,30,38,103,74,37,38,28,1
820,36.74770426750183,34,30,37,88,64,30,37,29,1
821,36.76121759414673,36,34,42,91,69,33,40,30,1
822,36.784912109375,35,34,44,107,67,31,41,30,1
823,36.80749487876892,34,34,43,104,67,27,40,30,1
824,36.82172727584839,32,35,41,104,69,27,39,29,1
825,36.84524869918823,30,32,39,105,69,27,37,27,1
826,36.86768937110901,38,38,43,102,69,29,40,31,1
827,36.88171100616455,42,46,49,99,76,35,46,32,1
828,36.905187129974365,41,46,48,93,71,35,46,31,1
829,36.9278290271759,43,49,50,94,69,40,49,31,1
830,36.94170308113098,45,53,49,94,68,41,49,32,1
831,36.96520233154297,42,49,41,90,64,38,45,27,1
832,36.98744463920593,40,43,31,57,49,33,37,26,1
833,37.001927614212036,44,45,29,62,57,35,38,31,1
834,37.02515268325806,43,41,26,76,53,30,33,29,1
835,37.04739832878113,56,56,55,80,66,36,44,38,1
836,37.07709455490112,54,54,57,86,63,37,45,39,1
837,37.08496427536011,52,54,57,95,68,39,44,39,1
838,37.10853290557861,51,53,58,95,63,37,44,36,1
839,37.12961196899414,54,59,66,90,77,37,49,41,1
840,37.14587092399597,41,43,46,83,70,34,39,33,1
841,37.167396068573,43,48,47,82,73,33,43,33,1
842,37.190056800842285,41,47,48,71,70,30,42,32,1
843,37.204519748687744,43,49,48,70,69,32,43,33,1
844,37.235217571258545,41,43,42,84,66,40,45,28,1
845,37.250226736068726,37,39,40,85,61,41,46,29,1
846,37.26497220993042,36,42,41,84,66,43,47,29,1
847,37.28748178482056,41,50,53,119,76,47,53,35,1
848,37.31024432182312,39,48,52,119,76,46,52,36,1
849,37.32557249069214,35,48,48,102,66,39,46,38,1
850,37.34746336936951,37,50,52,107,73,38,47,40,1
851,37.370004653930664,34,42,46,105,74,35,42,40,1
852,37.38544845581055,32,33,36,71,66,31,40,36,1
853,37.40878105163574,31,34,38,72,71,34,38,35,1
854,37.429988861083984,32,37,40,78,76,42,46,35,1
855,37.44513773918152,32,42,42,123,73,42,45,33,1
856,37.46783995628357,36,47,47,125,68,44,44,34,1
857,37.49029016494751,36,52,50,127,71,47,46,33,1
858,37.50434875488281,36,52,51,132,68,45,49,35,1
859,37.527565002441406,37,48,50,138,63,38,44,35,1
860,37.5499165058136,40,47,50,97,65,44,47,33,1
861,37.564669370651245,36,44,46,96,64,43,50,31,1
862,37.587141275405884,46,51,49,94,68,42,55,34,1
863,37.61011362075806,50,58,57,116,86,47,58,34,1
864,37.62498450279236,49,57,57,108,88,47,57,35,1
865,37.647541761398315,47,56,55,104,90,42,56,34,1
866,37.670212268829346,48,55,55,105,89,39,56,36,1
867,37.68447780609131,37,43,49,104,87,40,47,31,1
868,37.70698142051697,32,34,35,68,67,33,41,28,1
869,37.73022103309631,30,33,34,67,64,34,39,25,1
870,37.74435806274414,30,26,34,76,61,31,42,26,1
871,37.76769661903381,31,25,33,97,59,30,40,27,1
872,37.79024124145508,31,28,30,96,52,24,38,27,1
873,37.804248332977295,35,36,41,110,66,34,49,34,1
874,37.82766556739807,35,39,43,116,76,35,53,36,1
875,37.85020184516907,35,41,43,118,71,36,49,36,1
876,37.86425733566284,35,43,46,98,72,38,47,34,1
877,37.88743472099304,33,43,46,98,71,38,47,35,1
878,37.910022258758545,28,35,41,82,60,30,36,29,1
879,37.92440390586853,32,34,40,90,53,36,38,31,1
880,37.946961641311646,33,38,44,96,70,36,41,33,1
881,37.97041654586792,34,37,43,109,72,35,43,33,1
882,37.99295687675476,35,35,40,105,72,37,43,33,1
883,38.008527517318726,37,37,40,124,77,37,45,36,1
884,38.030083894729614,40,36,42,129,82,33,43,34,1
885,38.05260491371155,40,33,37,118,74,33,40,32,1
886,38.067582845687866,44,39,44,108,76,33,42,33,1
887,38.089295864105225,45,40,48,109,79,31,41,32,1
888,38.119240045547485,45,40,49,103,74,35,43,30,1
889,38.12883400917053,41,40,47,94,71,38,41,30,1
890,38.14928460121155,43,43,52,96,78,44,42,33,1
891,38.17258954048157,45,41,55,108,95,54,52,37,1
892,38.19659924507141,46,43,55,117,103,59,54,39,1
893,38.21745681762695,48,50,57,104,110,60,56,39,1
894,38.23187017440796,50,53,59,98,108,59,61,41,1
895,38.24857473373413,47,49,53,95,99,55,59,37,1
896,38.269752740859985,41,48,47,84,87,47,54,34,1
897,38.29858875274658,40,49,49,76,81,42,55,33,1
898,38.307745695114136,39,41,44,70,67,36,49,32,1
899,38.32936954498291,34,41,44,67,64,34,46,33,1
900,38.35220193862915,38,46,48,70,72,37,48,37,1
901,38.368481397628784,39,44,49,71,64,35,42,39,1
902,38.38895058631897,37,44,46,75,61,34,43,40,1
903,38.41162323951721,36,43,45,78,61,37,43,41,1
904,38.42769813537598,40,47,48,91,69,39,43,41,1
905,38.449392318725586,40,47,48,88,67,38,45,41,1
906,38.47181844711304,42,52,49,82,71,38,47,38,1
907,38.488611459732056,43,49,48,83,68,36,44,35,1
908,38.51706385612488,44,53,49,97,80,35,46,35,1
909,38.53173542022705,44,51,44,86,75,31,44,33,1
910,38.54918169975281,48,55,48,96,85,34,47,34,1
911,38.571054220199585,47,53,48,95,85,39,50,41,1
912,38.5922737121582,47,54,49,88,85,40,52,43,1
913,38.60874152183533,48,52,49,86,77,41,54,43,1
914,38.63134169578552,43,47,46,85,75,39,54,43,1
915,38.654175996780396,37,38,37,73,59,35,46,38,1
916,38.67621469497681,35,34,32,79,62,33,41,32,1
917,38.68934893608093,34,35,30,90,66,30,40,31,1
918,38.71939206123352,30,33,28,78,65,33,36,32,1
919,38.72882628440857,31,31,27,77,69,34,38,33,1
920,38.74943017959595,29,30,30,79,68,34,39,34,1
921,38.774218797683716,35,35,33,77,68,38,46,38,1
922,38.79066205024719,37,33,36,61,60,38,45,39,1
923,38.81134343147278,39,35,40,61,61,39,48,42,1
924,38.83195996284485,43,38,46,66,65,39,48,42,1
925,38.84876561164856,44,38,45,66,65,40,50,44,1
926,38.87214279174805,39,33,42,59,58,37,42,39,1
927,38.89181327819824,37,34,42,64,69,37,46,38,1
928,38.908634424209595,36,31,37,68,66,33,41,35,1
929,38.931639194488525,34,33,35,72,66,33,39,37,1
930,38.95347189903259,31,33,35,72,77,38,39,37,1
931,38.97431254386902,36,40,37,72,82,38,39,36,1
932,38.99151825904846,38,41,40,69,82,42,42,36,1
933,39.012065410614014,37,41,41,68,82,41,43,34,1
934,39.034382820129395,40,44,39,70,89,40,45,32,1
935,39.05119323730469,45,46,42,69,83,34,45,28,1
936,39.0720431804657,42,43,43,70,79,35,48,30,1
937,39.094528675079346,43,42,42,66,69,30,45,32,1
938,39.11168336868286,45,46,49,65,70,32,46,31,1
939,39.13904070854187,45,45,49,54,56,31,42,32,1
940,39.15524935722351,40,45,47,55,51,32,42,34,1
941,39.17122507095337,39,43,46,62,55,32,44,35,1
942,39.19209146499634,39,43,46,66,59,32,42,32,1
943,39.214385747909546,36,42,42,60,59,31,39,34,1
944,39.23129081726074,36,43,43,57,61,31,42,36,1
945,39.25189924240112,38,41,45,79,78,32,42,33,1
946,39.28182291984558,44,52,48,96,85,34,44,33,1
947,39.291258573532104,42,53,49,98,90,37,44,32,1
948,39.31232166290283,48,55,52,105,94,38,51,34,1
949,39.33421182632446,45,52,49,111,95,37,49,30,1
950,39.35106420516968,46,53,48,101,83,36,48,30,1
951,39.37163066864014,40,44,44,89,74,32,41,31,1
952,39.394431591033936,41,42,43,89,69,31,40,32,1
953,39.410252809524536,34,37,35,82,61,31,31,29,1
954,39.43222141265869,37,45,43,80,72,39,36,31,1
955,39.453980922698975,38,47,43,75,74,38,34,32,1
956,39.47034955024719,42,52,48,68,82,39,39,31,1
957,39.49264430999756,39,53,53,83,99,41,41,33,1
958,39.514857053756714,44,56,56,85,101,43,42,35,1
959,39.53140950202942,41,48,50,85,89,35,37,34,1
960,39.55190944671631,39,48,50,82,87,38,40,34,1
961,39.57622718811035,36,43,47,95,81,40,35,31,1
962,39.59197473526001,37,39,41,79,56,39,32,33,1
963,39.611984729766846,35,35,35,76,54,37,33,33,1
964,39.6347541809082,35,35,36,74,56,38,35,32,1
965,39.651692390441895,39,39,36,81,58,35,34,34,1
966,39.67200469970703,37,38,30,64,53,30,34,37,1
967,39.694409132003784,36,38,27,62,52,30,34,32,1
968,39.711562395095825,37,39,33,69,53,31,34,32,1
969,39.731892585754395,38,40,33,84,74,34,36,33,1
970,39.75466561317444,32,32,29,84,74,32,35,32,1
971,39.77125597000122,36,39,37,83,78,34,39,32,1
972,39.79253125190735,37,41,41,83,79,34,42,34,1
973,39.81448006629944,37,44,44,90,91,40,47,35,1
974,39.83690309524536,35,43,46,81,78,38,48,34,1
975,39.851855993270874,35,45,47,85,80,41,48,31,1
976,39.874571084976196,39,44,46,90,80,42,46,31,1
977,39.89694142341614,41,43,44,91,81,43,45,30,1
978,39.912089824676514,37,41,39,81,66,34,38,27,1
979,39.936113595962524,40,44,42,81,71,39,43,29,1
980,39.956815004348755,41,44,42,71,67,37,45,31,1
981,39.97349452972412,34,40,39,69,63,33,41,31,1
982,39.994271993637085,43,45,52,71,71,37,49,34,1
983,40.016868591308594,45,49,53,68,71,43,51,37,1
984,40.031962156295776,43,47,52,65,66,42,47,34,1
985,40.06229329109192,44,48,54,65,64,43,48,36,1
986,40.07714629173279,44,46,56,66,66,45,51,37,1
987,40.09209632873535,32,40,44,62,56,41,43,34,1
988,40.114640951156616,29,32,42,62,56,38,44,32,1
989,40.136961460113525,30,35,43,72,65,35,47,35,1
990,40.151795387268066,28,30,39,72,68,32,44,30,1
991,40.174723625183105,29,29,34,74,68,30,41,31,1
992,40.19715094566345,29,31,33,76,70,30,44,34,1
993,40.21209168434143,29,32,31,76,67,27,39,35,1
994,40.23404908180237,27,27,27,63,56,26,34,36,1
995,40.25695824623108,28,29,33,71,59,27,36,40,1
996,40.272188663482666,29,37,41,71,68,33,41,39,1
997,40.30187273025513,32,41,44,72,70,30,41,39,1
998,40.31692337989807,36,47,49,79,78,39,47,41,1
999,40.33137273788452,35,45,48,81,76,41,46,40,1
1000,40.36231851577759,38,46,46,77,77,43,46,36,1
1001,40.37688326835632,38,42,42,72,68,39,43,37,1
1002,40.391775608062744,43,43,44,69,68,41,42,37,1
1003,40.4164342880249,42,35,41,63,62,33,37,33,1
1004,40.43681597709656,42,39,43,57,59,32,36,33,1
1005,40.45192265510559,40,43,44,54,50,32,34,33,1
1006,40.47445058822632,38,46,43,67,54,34,30,32,1
1007,40.49704670906067,29,42,38,67,50,37,31,29,1
1008,40.51187705993652,31,48,41,68,51,37,38,34,1
1009,40.534324645996094,35,50,44,85,67,40,42,34,1
1010,40.55694341659546,34,49,48,87,70,42,47,36,1
1011,40.573946475982666,36,48,52,82,67,42,48,39,1
1012,40.594550132751465,39,48,54,84,68,38,46,40,1
1013,40.61686730384827,36,43,54,89,74,39,41,41,1
1014,40.632750272750854,38,42,53,86,66,38,42,42,1
1015,40.65428829193115,38,39,48,83,68,36,38,39,1
1016,40.67694282531738,40,39,45,80,71,38,39,36,1
1017,40.69510817527771,37,36,40,83,74,38,40,33,1
1018,40.71688485145569,35,36,35,87,69,41,38,30,1
1019,40.73687291145325,37,38,38,84,73,45,42,29,1
1020,40.751840591430664,37,38,42,84,76,45,43,30,1
1021,40.77400875091553,37,35,40,90,76,41,42,30,1
1022,40.796945333480835,41,40,43,86,78,41,44,35,1
1023,40.8121337890625,46,42,52,83,90,47,56,36,1
1024,40.8344202041626,41,37,50,73,84,40,50,34,1
1025,40.85884094238281,41,35,46,73,78,39,47,36,1
1026,40.879514932632446,45,38,46,58,77,40,47,38,1
1027,40.89461064338684,45,43,51,59,75,40,47,38,1
1028,40.91693115234375,40,42,41,54,55,31,32,38,1
1029,40.93950033187866,40,42,42,58,52,34,37,37,1
1030,40.95434093475342,39,43,43,73,54,32,38,37,1
1031,40.985265016555786,35,40,44,80,58,32,39,36,1
1032,40.99949526786804,33,37,40,87,63,35,43,37,1
1033,41.01436257362366,35,38,41,83,63,34,43,35,1
1034,41.036991596221924,35,39,38,93,67,32,41,35,1
1035,41.06766986846924,35,40,42,84,67,33,44,34,1
1036,41.07446002960205,33,40,40,78,58,30,42,30,1
1037,41.097129344940186,31,38,37,69,46,26,34,26,1
1038,41.11937141418457,30,35,36,69,46,29,35,27,1
1039,41.134376764297485,26,33,34,72,47,29,34,28,1
1040,41.15715193748474,25,30,30,72,52,29,32,26,1
1041,41.1793577671051,25,30,28,73,58,32,31,28,1
1042,41.193830728530884,25,28,27,77,65,33,35,31,1
1043,41.225794315338135,26,30,32,76,64,31,35,30,1
1044,41.239407777786255,32,38,37,65,63,33,35,33,1
1045,41.25487661361694,35,39,34,68,73,35,34,36,1
1046,41.27858090400696,37,41,35,70,74,34,39,37,1
1047,41.2999951839447,37,42,34,65,68,32,36,35,1
1048,41.31560778617859,37,41,34,73,76,33,37,35,1
1049,41.336889028549194,35,35,30,74,74,30,40,32,1
1050,41.36792254447937,32,34,30,70,59,30,39,32,1
1051,41.37426710128784,34,34,37,77,66,33,42,34,1
1052,41.396920919418335,32,31,35,80,72,34,44,32,1
1053,41.41939926147461,29,32,31,77,68,34,42,32,1
1054,41.43441152572632,26,35,34,78,69,37,40,30,1
1055,41.45712447166443,30,34,34,82,71,39,42,30,1
1056,41.479318141937256,31,36,29,74,62,38,39,26,1
1057,41.49653720855713,36,40,39,84,62,37,37,29,1
1058,41.517003774642944,37,40,43,85,64,36,38,28,1
1059,41.539368867874146,38,39,43,81,66,37,41,27,1
1060,41.554380655288696,38,41,46,80,62,38,42,27,1
1061,41.57714629173279,37,39,52,105,75,37,46,30,1
1062,41.59950852394104,32,35,46,101,71,40,45,28,1
1063,41.614362955093384,31,36,44,96,68,41,47,29,1
1064,41.6366503238678,43,52,52,101,83,52,62,40,1
1065,41.65966510772705,41,52,51,99,83,50,59,40,1
1066,41.67457175254822,41,52,44,73,75,49,56,40,1
1067,41.69711112976074,42,51,43,73,75,48,56,40,1
1068,41.71955323219299,44,51,45,72,73,49,56,40,1
1069,41.73615908622742,32,36,36,70,58,34,35,31,1
1070,41.757033824920654,35,35,41,78,67,33,36,29,1
1071,41.779818296432495,36,36,42,77,62,32,40,29,1
1072,41.80195116996765,37,37,42,73,59,33,39,28,1
1073,41.82531666755676,37,39,46,76,61,32,39,28,1
1074,41.83966040611267,39,38,47,73,62,33,39,27,1
1075,41.86212682723999,38,36,42,66,55,32,36,27,1
1076,41.87699365615845,36,34,44,65,55,31,31,25,1
1077,41.89976525306702,37,36,48,63,57,36,35,26,1
1078,41.922356605529785,39,32,48,65,61,39,44,30,1
1079,41.93709182739258,37,33,44,64,56,40,46,32,1
1080,41.95967221260071,36,38,44,62,55,42,48,33,1
1081,41.9827446937561,34,38,41,64,56,43,48,34,1
1082,41.99690246582031,34,42,39,64,55,36,45,31,1
1083,42.01939868927002,35,49,33,57,46,31,36,31,1
1084,42.041929721832275,38,47,33,60,54,29,33,29,1
1085,42.05683898925781,41,47,32,59,54,28,34,27,1
1086,42.07940316200256,43,45,31,60,50,26,32,28,1
1087,42.10196495056152,42,41,29,67,60,38,38,32,1
1088,42.117067098617554,39,34,31,76,70,41,39,31,1
1089,42.13894963264465,37,36,34,72,62,45,40,29,1
1090,42.16217803955078,36,31,33,72,62,48,39,29,1
1091,42.17750692367554,37,34,36,75,69,49,39,27,1
1092,42.19953727722168,36,42,42,73,67,42,39,26,1
1093,42.22212553024292,36,43,41,62,57,39,36,25,1
1094,42.246368646621704,38,47,44,68,65,35,37,29,1
1095,42.25934195518494,35,50,45,79,68,33,41,32,1
1096,42.290886640548706,33,52,45,77,66,34,41,34,1
1097,42.297003984451294,33,46,42,69,58,35,38,32,1
1098,42.319955587387085,42,49,47,88,74,42,45,34,1
1099,42.34204459190369,43,44,45,84,68,45,45,35,1
1100,42.35902690887451,45,48,47,85,73,48,48,36,1
1101,42.38190984725952,47,46,48,87,89,52,50,38,1
1102,42.40228724479675,47,45,46,86,90,51,51,39,1
1103,42.41707181930542,38,40,37,70,79,45,45,36,1
1104,42.4394633769989,39,43,41,70,82,44,48,35,1
1105,42.46272015571594,41,39,40,62,80,40,45,32,1
1106,42.4775505065918,41,37,39,69,71,38,45,29,1
1107,42.49970602989197,39,35,38,69,70,36,42,32,1
1108,42.52204656600952,40,39,40,70,75,37,46,35,1
1109,42.53740429878235,35,36,36,71,74,33,42,33,1
1110,42.55971622467041,37,37,32,72,74,32,38,34,1
1111,42.58198690414429,39,40,36,62,66,35,41,36,1
1112,42.61440372467041,40,42,39,70,74,39,45,36,1
1113,42.62023377418518,41,50,42,71,72,39,42,34,1
1114,42.64228343963623,41,51,41,75,71,38,41,35,1
1115,42.65957522392273,41,53,51,91,78,43,47,38,1
1116,42.67940139770508,40,51,50,91,75,41,44,34,1
1117,42.70218229293823,43,56,53,96,86,41,48,35,1
1118,42.72444438934326,46,50,53,99,91,45,49,37,1
1119,42.739537477493286,47,50,53,94,90,47,52,39,1
1120,42.76224637031555,48,50,49,95,95,47,53,40,1
1121,42.7845344543457,47,50,48,97,102,51,57,42,1
1122,42.79951453208923,48,46,45,88,91,49,55,42,1
1123,42.82217335700989,44,43,41,82,91,46,55,41,1
1124,42.84414267539978,43,44,43,87,91,44,53,40,1
1125,42.85946440696716,36,37,35,65,74,38,44,34,1
1126,42.882285833358765,36,41,35,70,65,35,41,34,1
1127,42.90424633026123,34,44,41,77,83,38,38,34,1
1128,42.92732095718384,36,46,44,85,86,43,43,35,1
1129,42.94144296646118,35,44,42,84,89,46,45,32,1
1130,42.96506071090698,42,48,50,83,95,48,51,33,1
1131,42.97969126701355,42,46,49,88,96,47,50,31,1
1132,43.00226402282715,40,41,43,81,78,48,51,29,1
1133,43.02452754974365,39,38,39,71,64,42,45,29,1
1134,43.0393750667572,42,40,40,71,67,44,45,32,1
1135,43.06196737289429,39,38,31,73,67,43,44,33,1
1136,43.0844566822052,38,37,34,62,66,39,44,32,1
1137,43.09940719604492,36,37,34,68,69,36,46,34,1
1138,43.12300658226013,36,37,34,68,71,37,47,35,1
1139,43.144641637802124,32,33,33,63,65,31,44,34,1
1140,43.16193413734436,30,33,35,62,56,33,42,33,1
1141,43.18143343925476,28,33,34,69,54,35,41,33,1
1142,43.21291756629944,30,30,34,63,58,37,35,31,1
1143,43.21951699256897,33,29,37,68,62,39,38,31,1
1144,43.242085695266724,35,33,39,69,62,47,42,33,1
1145,43.26486611366272,34,29,35,71,65,44,41,32,1
1146,43.27980160713196,37,31,35,67,68,46,43,35,1
1147,43.30197620391846,38,35,35,71,65,43,42,35,1
1148,43.32456064224243,38,46,47,84,77,47,50,37,1
1149,43.33975124359131,44,51,51,91,87,46,52,36,1
1150,43.36276626586914,45,53,52,89,85,44,52,35,1
1151,43.392752170562744,44,52,52,84,85,42,50,33,1
1152,43.399529695510864,45,53,58,87,95,46,54,37,1
1153,43.42150354385376,46,44,50,74,84,41,46,34,1
1154,43.44567036628723,40,41,46,67,77,38,40,37,1
1155,43.459574937820435,39,39,46,68,86,40,39,39,1
1156,43.490371227264404,40,39,50,68,82,40,40,41,1
1157,43.50483989715576,41,40,44,68,69,37,35,37,1
1158,43.51935911178589,36,40,41,70,72,36,35,36,1
1159,43.542093992233276,37,38,41,70,75,33,34,33,1
1160,43.5659704208374,37,39,45,82,81,37,37,30,1
1161,43.579604387283325,37,39,42,91,90,39,35,28,1
1162,43.60343146324158,35,39,45,93,96,41,42,30,1
1163,43.6245641708374,36,39,46,100,104,43,43,32,1
1164,43.64846587181091,41,43,48,98,102,45,49,34,1
1165,43.66152095794678,41,45,44,85,89,41,50,35,1
1166,43.6846342086792,45,47,49,85,83,39,51,35,1
1167,43.70771026611328,50,53,54,84,82,43,58,38,1
1168,43.721967458724976,52,53,53,72,69,42,57,34,1
1169,43.74470663070679,51,51,51,82,76,42,56,35,1
1170,43.769118309020996,51,51,52,89,84,42,54,36,1
1171,43.78239393234253,48,51,48,80,83,42,53,36,1
1172,43.80414915084839,40,44,36,74,76,37,43,35,1
1173,43.82777142524719,39,47,41,79,82,40,49,39,1
1174,43.8424026966095,33,43,38,69,72,36,42,38,1
1175,43.864638805389404,33,41,39,65,66,33,41,37,1
1176,43.88859462738037,33,41,39,69,69,36,42,39,1
1177,43.90208983421326,32,38,42,76,68,32,39,38,1
1178,43.92479729652405,30,32,38,70,56,25,28,33,1
1179,43.94796919822693,29,33,39,74,54,26,32,32,1
1180,43.962364196777344,29,34,38,82,56,31,32,32,1
1181,43.98457407951355,27,32,40,86,55,30,30,29,1
1182,44.009429693222046,31,36,37,95,62,38,31,30,1
1183,44.02201271057129,32,35,35,98,61,40,32,33,1
1184,44.04447674751282,33,34,35,97,64,40,33,32,1
1185,44.067625522613525,33,32,34,93,60,39,32,32,1
1186,44.082316160202026,39,37,36,88,60,56,72,35,1
1187,44.10456085205078,38,37,40,79,61,54,77,32,1
1188,44.12755584716797,38,38,41,76,62,55,79,30,1
1189,44.14205265045166,39,40,42,72,61,61,82,34,1
1190,44.173211097717285,39,40,41,66,60,61,84,34,1
1191,44.18822407722473,34,37,36,67,61,45,56,32,1
1192,44.202300786972046,33,35,36,65,51,44,47,32,1
1193,44.22462725639343,35,39,45,87,76,49,48,34,1
1194,44.24812030792236,32,36,44,90,77,41,42,31,1
1195,44.262343406677246,30,37,43,90,81,40,39,32,1
1196,44.284544944763184,34,43,51,101,89,45,41,35,1
1197,44.30760216712952,32,42,49,101,91,43,42,34,1
1198,44.32199168205261,31,36,40,80,74,38,42,32,1
1199,44.34459042549133,35,39,43,88,82,42,42,30,1
1200,44.367753982543945,41,39,43,97,87,45,44,31,1
1201,44.38230848312378,40,34,38,86,77,43,41,30,1
1202,44.404605865478516,46,38,42,95,94,49,48,32,1
1203,44.42797350883484,48,44,46,107,103,49,45,36,1
1204,44.44266057014465,44,41,43,106,103,46,46,35,1
1205,44.464942932128906,42,45,49,112,105,48,48,37,1
1206,44.48766231536865,42,44,46,112,104,43,48,34,1
1207,44.50163006782532,39,42,42,99,86,36,40,33,1
1208,44.52413630485535,35,39,39,90,77,32,40,29,1
1209,44.54821300506592,38,41,40,99,68,33,40,29,1
1210,44.570232629776,39,40,35,89,57,27,36,26,1
1211,44.58509182929993,36,39,33,88,63,29,32,27,1
1212,44.60785365104675,34,38,35,102,77,35,39,30,1
1213,44.62217164039612,40,41,36,99,80,43,43,30,1
1214,44.644705057144165,38,42,38,84,85,45,47,32,1
1215,44.66781401634216,35,37,35,80,91,44,48,33,1
1216,44.69041085243225,36,36,37,89,89,45,48,31,1
1217,44.70461440086365,35,37,36,108,81,40,45,28,1
1218,44.72781586647034,30,30,35,108,80,31,40,26,1
1219,44.757707834243774,32,33,33,112,76,27,36,26,1
1220,44.76501679420471,36,38,36,111,70,32,40,26,1
1221,44.78782606124878,37,43,38,106,71,33,44,29,1
1222,44.81018900871277,39,44,39,76,75,36,44,32,1
1223,44.824695110321045,42,50,43,80,78,41,48,38,1
1224,44.855374574661255,43,49,44,70,75,42,50,38,1
1225,44.87768483161926,39,48,42,77,77,40,44,35,1
1226,44.88457274436951,44,50,42,77,87,46,49,37,1
1227,44.907721281051636,45,50,45,84,86,45,47,37,1
1228,44.930253744125366,45,50,52,101,99,48,47,34,1
1229,44.953019857406616,47,54,60,123,118,56,58,40,1
1230,44.967557430267334,56,59,65,129,130,62,64,46,1
1231,44.990164041519165,52,54,66,133,125,59,59,45,1
1232,45.0050745010376,52,54,64,135,127,58,61,45,1
1233,45.02784848213196,49,52,55,123,116,56,57,45,1
1234,45.05048656463623,44,44,45,102,95,45,45,38,1
1235,45.0646288394928,32,34,37,91,77,35,37,32,1
1236,45.08721876144409,31,37,33,85,67,36,43,36,1
1237,45.1113965511322,28,33,29,78,64,35,41,37,1
1238,45.12450361251831,35,38,37,89,61,30,42,39,1
1239,45.14824318885803,40,43,45,97,78,32,44,39,1
1240,45.17090845108032,43,47,47,95,74,33,43,39,1
1241,45.1846399307251,41,44,45,90,72,30,36,34,1
1242,45.20782256126404,43,46,49,93,67,30,37,34,1
1243,45.230550050735474,38,39,43,83,68,32,38,31,1
1244,45.244680404663086,35,37,39,85,62,31,41,33,1
1245,45.275264263153076,38,38,43,86,82,35,51,38,1
1246,45.297993421554565,44,41,47,98,91,38,55,38,1
1247,45.30475449562073,42,42,44,93,93,38,53,38,1
1248,45.32732892036438,45,42,44,91,96,39,53,39,1
1249,45.350369691848755,43,39,40,80,89,39,47,37,1
1250,45.36473536491394,40,36,35,86,84,39,38,32,1
1251,45.38773727416992,35,35,30,82,81,35,32,31,1
1252,45.41072964668274,42,40,34,87,94,41,39,32,1
1253,45.425100326538086,37,39,34,86,95,41,35,29,1
1254,45.447977781295776,41,44,41,90,98,44,43,30,1
1255,45.47051763534546,40,43,39,88,91,42,44,31,1
1256,45.484840869903564,42,42,41,92,89,46,48,33,1
1257,45.507713317871094,36,39,47,90,81,42,48,34,1
1258,45.53011226654053,38,41,47,86,73,43,49,35,1
1259,45.54423713684082,37,37,44,88,79,42,45,32,1
1260,45.567301750183105,36,38,44,89,88,43,44,32,1
1261,45.59180235862732,39,40,44,90,93,41,44,32,1
1262,45.61283087730408,38,41,39,83,86,38,42,29,1
1263,45.62714982032776,38,43,43,82,87,37,42,29,1
1264,45.65036702156067,37,43,43,84,80,37,41,31,1
1265,45.67311954498291,39,43,43,83,73,34,41,29,1
1266,45.687551975250244,38,40,44,68,62,33,38,28,1
1267,45.710566997528076,39,38,40,65,63,31,35,28,1
1268,45.73328137397766,38,34,37,71,71,29,36,27,1
1269,45.74707508087158,39,34,35,69,69,32,37,28,1
1270,45.77018713951111,37,32,33,72,72,34,38,29,1
1271,45.792770862579346,32,34,28,77,77,33,34,27,1
1272,45.80708146095276,30,34,28,78,81,36,37,28,1
1273,45.83097267150879,30,36,28,74,75,39,37,29,1
1274,45.85275864601135,33,36,34,74,79,39,39,29,1
1275,45.875762701034546,36,37,35,70,72,35,41,32,1
1276,45.89081335067749,40,40,41,70,66,44,46,41,1
1277,45.912999391555786,41,39,39,66,60,43,43,41,1
1278,45.93539357185364,43,41,43,78,70,42,44,42,1
1279,45.950406074523926,42,44,41,73,65,41,48,44,1
1280,45.97287464141846,40,43,39,68,65,41,44,40,1
1281,45.98708701133728,39,39,33,66,67,37,46,33,1
1282,46.01007318496704,42,40,35,75,69,42,49,33,1
1283,46.03288412094116,39,41,33,68,68,42,48,32,1
1284,46.04783058166504,39,40,34,71,70,44,45,31,1
1285,46.07061195373535,38,40,36,69,71,45,44,30,1
1286,46.09281039237976,37,40,39,73,67,43,40,29,1
1287,46.107186794281006,35,42,46,76,80,42,45,32,1
1288,46.13053870201111,41,42,46,71,69,43,46,33,1
1289,46.152955055236816,38,41,44,73,66,37,42,31,1
1290,46.16712141036987,41,44,47,77,66,40,45,33,1
1291,46.190229177474976,42,46,48,75,67,38,45,33,1
1292,46.2132134437561,39,43,43,64,51,34,38,29,1
1293,46.228426456451416,35,44,43,71,54,35,39,27,1
1294,46.25054955482483,35,42,43,67,54,39,39,29,1
1295,46.27425932884216,35,43,44,70,64,41,43,29,1
1296,46.28701329231262,37,42,45,68,64,42,46,33,1
1297,46.31041669845581,37,41,45,69,60,40,44,32,1
1298,46.332985162734985,39,36,47,72,58,38,46,30,1
1299,46.34716868400574,37,36,46,77,61,36,45,29,1
1300,46.37048530578613,39,37,45,75,61,30,42,28,1
1301,46.393168687820435,42,39,46,91,71,34,43,26,1
1302,46.40709400177002,41,42,48,102,84,37,45,27,1
1303,46.43040060997009,39,43,46,94,86,40,44,30,1
1304,46.45278358459473,40,46,48,88,85,41,44,31,1
1305,46.46705484390259,37,42,47,85,77,40,40,32,1
1306,46.490705728530884,34,41,47,75,67,39,36,31,1
1307,46.52042078971863,33,40,46,73,56,39,36,33,1
1308,46.53526830673218,29,36,43,77,50,35,33,30,1
1309,46.55023145675659,29,36,44,84,60,37,38,30,1
1310,46.57295036315918,27,33,40,88,66,36,39,27,1
1311,46.59545922279358,30,38,45,83,73,36,50,30,1
1312,46.61034154891968,33,43,48,89,76,40,50,30,1
1313,46.63280153274536,37,46,50,91,80,41,51,33,1
1314,46.6553909778595,37,47,49,85,74,39,48,33,1
1315,46.670620918273926,48,57,60,89,72,42,55,38,1
1316,46.69305777549744,45,55,56,87,64,41,45,37,1
1317,46.71564078330994,45,53,53,78,63,36,43,38,1
1318,46.7303740978241,44,54,52,80,66,40,45,39,1
1319,46.75335693359375,44,51,51,82,64,40,44,39,1
1320,46.77574801445007,37,47,53,100,83,39,42,38,1
1321,46.79053854942322,38,49,55,111,96,43,45,40,1
1322,46.81324005126953,44,47,55,107,96,47,46,38,1
1323,46.83541297912598,41,44,53,103,97,44,41,35,1
1324,46.85032606124878,40,45,54,102,99,43,44,37,1
1325,46.87296772003174,35,36,39,78,82,42,37,34,1
1326,46.895726442337036,34,29,31,61,66,42,34,34,1
1327,46.91036081314087,27,28,31,67,70,38,34,36,1
1328,46.93390512466431,30,32,40,71,71,37,48,38,1
1329,46.95537447929382,34,38,41,77,83,40,50,36,1
1330,46.97042417526245,39,42,45,78,84,41,55,37,1
1331,46.99287223815918,38,41,46,80,89,39,54,33,1
1332,47.01547050476074,39,42,47,79,87,39,57,31,1
1333,47.029597759246826,37,39,41,76,83,40,47,28,1
1334,47.05287218093872,38,36,42,76,73,41,46,34,1
1335,47.075658321380615,34,32,40,77,73,39,43,34,1
1336,47.09820485115051,35,36,41,86,76,38,43,37,1
1337,47.11318826675415,38,39,40,83,75,36,42,37,1
1338,47.136032581329346,39,40,36,81,71,33,40,36,1
1339,47.14973258972168,45,44,44,84,80,33,49,39,1
1340,47.17313838005066,47,45,47,86,91,37,51,39,1
1341,47.19521641731262,48,46,48,82,87,36,51,35,1
1342,47.209537744522095,44,42,48,82,89,37,48,36,1
1343,47.233128786087036,43,41,48,83,92,39,50,40,1
1344,47.25557565689087,36,40,44,80,93,40,51,33,1
1345,47.26926374435425,33,39,41,73,80,37,45,31,1
1346,47.2923481464386,30,35,43,68,80,36,43,32,1
1347,47.31537318229675,32,36,44,75,82,39,50,34,1
1348,47.33013391494751,34,37,44,72,77,39,50,32,1
1349,47.352861166000366,31,32,41,66,61,35,39,32,1
1350,47.37533187866211,39,35,45,70,65,42,48,35,1
1351,47.389652490615845,40,35,39,66,62,45,49,39,1
1352,47.41442322731018,40,33,37,58,53,42,43,37,1
1353,47.43535661697388,40,39,41,63,60,41,44,37,1
1354,47.449681520462036,40,38,43,60,61,40,42,39,1
1355,47.47299575805664,32,35,38,57,54,33,32,36,1
1356,47.49638795852661,32,36,39,60,51,32,31,34,1
1357,47.51787781715393,34,41,41,70,64,32,33,33,1
1358,47.532917499542236,33,38,38,69,62,31,33,32,1
1359,47.556272745132446,46,46,41,77,85,41,53,34,1
1360,47.57815718650818,50,51,48,88,104,46,63,35,1
1361,47.59302997589111,52,53,54,97,115,48,65,34,1
1362,47.6161527633667,56,58,60,96,115,50,67,39,1
1363,47.63818144798279,56,58,60,97,122,51,65,38,1
1364,47.6533579826355,55,61,64,103,122,56,60,40,1
1365,47.67501616477966,53,57,60,102,110,54,53,39,1
1366,47.69726371765137,50,57,56,93,99,50,50,39,1
1367,47.712326765060425,48,51,51,84,96,49,49,36,1
1368,47.735294342041016,50,52,55,85,93,47,49,36,1
1369,47.757864236831665,40,40,44,73,70,32,39,30,1
1370,47.77298617362976,41,43,46,63,67,30,38,30,1
1371,47.79591464996338,41,44,47,71,82,36,44,30,1
1372,47.818103551864624,37,43,48,76,91,34,44,25,1
1373,47.83299946784973,37,41,45,81,103,44,52,31,1
1374,47.856202602386475,42,50,57,92,110,46,57,32,1
1375,47.8773307800293,52,58,66,110,123,53,68,38,1
1376,47.89280724525452,51,58,68,108,115,51,64,39,1
1377,47.915992736816406,52,57,67,107,108,50,65,41,1
1378,47.93791961669922,54,60,69,105,92,43,60,37,1
1379,47.95174050331116,51,53,59,98,93,39,54,36,1
1380,47.97575926780701,39,42,46,85,80,28,37,29,1
1381,47.99799633026123,48,45,47,87,89,32,42,33,1
1382,48.012123823165894,48,45,47,86,91,37,44,32,1
1383,48.035722732543945,43,39,40,79,86,36,44,34,1
1384,48.05835461616516,42,39,39,76,79,36,45,36,1
1385,48.0722177028656,43,37,38,62,71,36,44,35,1
1386,48.095282554626465,37,34,32,64,63,31,40,34,1
1387,48.11783719062805,35,32,32,63,54,26,36,33,1
1388,48.132736921310425,32,34,33,74,71,26,32,30,1
1389,48.15494251251221,38,47,45,95,76,31,34,29,1
1390,48.177690267562866,37,51,47,100,83,32,35,32,1
1391,48.192546129226685,37,49,46,100,85,31,35,32,1
1392,48.21619391441345,39,50,49,103,90,37,40,33,1
1393,48.237844705581665,41,53,49,105,91,35,39,33,1
1394,48.252092123031616,39,45,42,91,88,34,39,34,1
1395,48.27528929710388,39,39,43,90,85,37,42,36,1
1396,48.29973316192627,37,42,42,84,78,38,41,35,1
1397,48.31225228309631,36,42,41,80,73,34,37,35,1
1398,48.337515354156494,37,43,42,74,66,38,38,35,1
1399,48.357964277267456,36,40,40,81,64,35,36,35,1
1400,48.37362718582153,34,42,42,81,70,35,41,36,1
1401,48.39552855491638,33,39,40,84,70,35,41,34,1
1402,48.418302059173584,30,36,35,82,68,33,39,33,1
1403,48.4406840801239,34,33,39,82,67,33,41,34,1
1404,48.455570697784424,37,41,43,80,68,37,45,33,1
1405,48.47757959365845,40,44,48,82,67,37,42,30,1
1406,48.50082802772522,42,46,50,86,73,37,43,30,1
1407,48.515706062316895,43,48,51,90,82,37,44,30,1
1408,48.53789138793945,44,52,51,89,87,37,49,36,1
1409,48.56066107749939,42,48,49,99,99,35,48,37,1
1410,48.575437784194946,39,43,40,96,96,31,46,36,1
1411,48.598912954330444,40,43,40,91,92,30,44,39,1
1412,48.620532512664795,41,44,42,89,89,34,45,42,1
1413,48.636608362197876,34,38,38,81,81,32,40,36,1
1414,48.66485285758972,31,35,35,56,61,32,35,34,1
1415,48.68748712539673,32,39,36,48,57,33,33,32,1
1416,48.69735765457153,32,39,36,48,58,34,37,28,1
1417,48.71722888946533,29,39,34,59,62,33,34,25,1
1418,48.74076271057129,40,58,49,85,82,40,44,30,1
1419,48.76399827003479,42,59,50,93,85,42,44,31,1
1420,48.777812004089355,41,58,52,96,90,42,46,32,1
1421,48.7999370098114,43,58,55,97,94,41,46,37,1
1422,48.81666564941406,44,55,55,89,88,40,45,36,1
1423,48.83745884895325,40,42,45,83,82,37,40,32,1
1424,48.85991907119751,38,39,42,72,79,33,39,31,1
1425,48.87689137458801,40,41,43,88,79,36,40,34,1
1426,48.89708971977234,38,39,38,87,70,36,38,35,1
1427,48.919771909713745,39,44,38,87,71,39,42,37,1
1428,48.9372034072876,34,35,32,76,55,35,37,37,1
1429,48.96491098403931,35,33,31,84,64,37,40,36,1
1430,48.98030996322632,36,35,33,69,60,37,41,34,1
1431,48.99739074707031,36,35,37,72,70,39,44,31,1
1432,49.017197608947754,37,37,42,75,71,40,43,33,1
1433,49.039711236953735,38,40,47,73,72,42,45,33,1
1434,49.05828666687012,37,40,48,64,64,40,43,35,1
1435,49.07963299751282,34,36,45,63,66,38,40,35,1
1436,49.09963822364807,34,36,42,62,60,38,40,33,1
1437,49.116578102111816,29,28,36,58,55,33,38,31,1
1438,49.13809585571289,29,30,32,62,62,30,35,34,1
1439,49.17574501037598,32,30,31,73,71,31,38,33,1
1440,49.177937507629395,33,34,32,85,76,35,38,34,1
1441,49.19900417327881,31,34,31,88,76,37,36,33,1
1442,49.21990513801575,39,45,46,97,93,46,46,35,1
1443,49.23656487464905,39,44,46,98,92,45,46,31,1
1444,49.258845806121826,38,46,48,92,87,44,45,31,1
1445,49.279731035232544,36,43,46,79,79,40,43,29,1
1446,49.296584367752075,39,44,45,73,79,35,40,30,1
1447,49.320048570632935,33,35,36,70,73,28,35,29,1
1448,49.34011673927307,29,31,35,66,68,33,36,30,1
1449,49.36186075210571,28,29,33,67,67,34,36,29,1
1450,49.37892770767212,31,36,42,78,76,38,45,29,1
1451,49.39978361129761,27,37,43,79,75,39,48,29,1
1452,49.42240619659424,31,41,44,79,68,37,46,30,1
1453,49.439239263534546,33,44,47,86,77,36,48,31,1
1454,49.461453914642334,38,45,49,82,79,35,49,32,1
1455,49.48256492614746,37,42,42,73,72,36,47,33,1
1456,49.499433279037476,38,42,42,80,75,38,44,32,1
1457,49.51962208747864,35,40,36,74,72,38,42,31,1
1458,49.54238796234131,34,37,34,74,66,36,37,30,1
1459,49.560622692108154,30,40,31,74,61,41,38,28,1
1460,49.57971262931824,36,46,40,89,82,42,43,32,1
1461,49.603941202163696,38,43,41,83,78,39,45,34,1
1462,49.61895418167114,37,41,42,85,81,38,44,35,1
1463,49.64000678062439,38,45,44,81,92,44,53,35,1
1464,49.661832094192505,37,44,42,81,94,42,51,35,1
1465,49.67823386192322,32,36,39,73,77,36,42,32,1
1466,49.69963026046753,30,35,36,74,82,39,44,31,1
1467,49.72425198554993,31,35,35,73,80,40,45,31,1
1468,49.73901104927063,33,34,37,70,70,37,37,34,1
1469,49.76022696495056,36,33,42,76,71,36,38,36,1
1470,49.78243947029114,35,35,41,69,67,36,40,35,1
1471,49.80048608779907,38,44,50,79,80,39,44,38,1
1472,49.81970500946045,38,45,51,83,87,39,48,39,1
1473,49.84272789955139,35,43,47,86,88,35,47,36,1
1474,49.85911154747009,44,52,54,92,96,40,53,38,1
1475,49.88110566139221,45,52,53,90,96,42,54,39,1
1476,49.90212273597717,42,46,44,85,87,40,48,35,1
1477,49.91909861564636,42,48,45,91,88,44,46,34,1
1478,49.93956208229065,41,46,44,85,81,45,48,33,1
1479,49.96940851211548,27,33,30,72,71,41,38,31,1
1480,49.97987389564514,28,33,31,72,70,39,36,32,1
1481,49.99928140640259,28,31,29,67,76,35,35,32,1
1482,50.02234125137329,30,29,30,53,64,30,34,32,1
1483,50.03890037536621,31,28,31,53,63,26,29,31,1
1484,50.059890270233154,35,30,38,56,64,31,36,30,1
1485,50.098958015441895,32,31,40,69,70,34,38,29,1
1486,50.10146498680115,31,32,43,63,54,34,38,28,1
1487,50.119975566864014,30,32,39,66,55,32,35,28,1
1488,50.14211988449097,32,32,41,68,57,36,44,28,1
1489,50.158944606781006,30,30,38,78,76,38,45,27,1
1490,50.180015563964844,30,28,34,74,74,38,43,29,1
1491,50.202210903167725,32,29,35,79,76,42,45,28,1
1492,50.219635248184204,31,26,35,79,77,43,46,29,1
1493,50.23958444595337,30,33,32,78,77,42,40,30,1
1494,50.26232624053955,36,40,33,69,64,37,40,34,1
1495,50.27954602241516,38,42,36,62,64,36,40,32,1
1496,50.29977059364319,38,42,32,74,75,36,42,33,1
1497,50.322304010391235,46,47,35,76,74,35,48,35,1
1498,50.344884395599365,44,42,33,75,70,37,50,34,1
1499,50.36017656326294,40,37,33,74,68,36,46,32,1
1500,50.38224697113037,39,38,33,76,68,37,46,32,1
1501,50.404799461364746,42,44,39,74,58,38,44,32,1
1502,50.4273202419281,32,40,40,75,63,37,37,30,1
1503,50.44219708442688,35,42,43,78,68,37,36,31,1
1504,50.46515107154846,39,45,45,83,67,36,39,29,1
1505,50.48033928871155,38,43,44,84,64,35,39,28,1
1506,50.50216197967529,32,35,38,74,66,31,37,26,1
1507,50.52538323402405,37,42,40,77,69,33,42,27,1
1508,50.5398850440979,38,46,42,82,71,31,40,28,1
1509,50.56222128868103,36,47,42,76,73,31,38,28,1
1510,50.5848445892334,39,53,53,93,90,37,40,29,1
1511,50.599926233291626,47,57,58,102,91,43,44,33,1
1512,50.621851682662964,44,51,56,93,86,40,40,30,1
1513,50.644444704055786,41,45,53,85,82,40,40,30,1
1514,50.66161394119263,39,39,50,86,78,42,41,31,1
1515,50.684983015060425,35,32,39,68,58,37,37,32,1
1516,50.70437264442444,29,26,34,61,61,32,37,30,1
1517,50.719319105148315,28,28,34,66,61,34,38,29,1
1518,50.74238109588623,29,30,35,65,61,33,37,29,1
1519,50.765028953552246,30,29,35,64,59,29,35,27,1
1520,50.77975344657898,37,33,42,69,66,39,48,32,1
1521,50.803189754486084,35,37,45,65,77,39,47,32,1
1522,50.84109926223755,37,38,44,63,77,43,48,34,1
1523,50.84754967689514,40,41,46,65,77,44,48,36,1
1524,50.86191987991333,39,41,45,64,77,45,50,36,1
1525,50.884260177612305,35,39,39,59,74,37,40,29,1
1526,50.90012764930725,32,38,35,53,56,35,36,29,1
1527,50.922462940216064,30,36,33,49,53,29,31,27,1
1528,50.94475603103638,28,32,28,51,59,37,34,28,1
1529,50.95989775657654,30,32,28,56,60,38,31,31,1
1530,50.982534885406494,31,31,27,55,63,38,30,31,1
1531,51.004451751708984,35,29,28,59,66,40,36,32,1
1532,51.02718710899353,41,37,34,74,75,43,44,35,1
1533,51.04225158691406,42,39,36,74,71,38,46,35,1
1534,51.0657479763031,40,39,37,72,70,35,46,34,1
1535,51.080108404159546,45,43,44,78,77,38,50,36,1
1536,51.109384536743164,44,43,43,77,80,37,48,36,1
1537,51.12496614456177,43,46,47,66,74,35,47,44,1
1538,51.13972091674805,41,48,45,64,74,33,42,43,1
1539,51.1623113155365,41,48,45,64,83,33,42,43,1
1540,51.18485355377197,40,47,42,62,75,34,43,45,1
1541,51.20726704597473,40,46,40,62,69,33,42,46,1
1542,51.2226881980896,36,37,37,72,71,36,39,38,1
1543,51.244895458221436,38,35,40,89,81,37,43,40,1
1544,51.26167893409729,38,38,43,90,72,37,45,37,1
1545,51.28271770477295,38,36,45,101,82,38,46,36,1
1546,51.30481767654419,39,36,45,106,87,42,49,35,1
1547,51.3269259929657,42,35,42,105,84,38,46,32,1
1548,51.34237575531006,41,36,45,90,80,40,45,33,1
1549,51.36550736427307,45,37,45,96,84,44,48,37,1
1550,51.40417504310608,44,36,43,81,71,43,42,35,1
1551,51.40639066696167,46,39,48,76,70,46,45,36,1
1552,51.42507362365723,43,39,46,64,68,47,44,35,1
1553,51.44731688499451,43,39,42,73,64,44,42,32,1
1554,51.46237754821777,43,39,45,71,61,42,40,29,1
1555,51.484583616256714,40,41,45,81,64,42,42,30,1
1556,51.506916522979736,32,38,41,77,54,34,39,27,1
1557,51.529860734939575,36,42,45,81,56,34,38,29,1
1558,51.54483771324158,34,39,44,72,55,34,38,28,1
1559,51.567280292510986,34,39,41,77,61,31,37,31,1
1560,51.58216667175293,43,48,46,74,77,30,42,33,1
1561,51.6046998500824,43,48,45,77,79,30,40,34,1
1562,51.62759876251221,42,49,48,85,81,30,40,36,1
1563,51.64226031303406,46,51,51,88,81,33,43,38,1
1564,51.66528010368347,42,48,48,79,75,33,39,37,1
1565,51.687169790267944,33,38,40,71,56,32,31,35,1
1566,51.702348947525024,35,39,39,71,62,35,30,34,1
1567,51.72503328323364,33,35,31,62,63,37,33,33,1
1568,51.747297286987305,28,33,29,91,72,36,34,32,1
1569,51.769763469696045,27,31,30,91,72,37,33,29,1
1570,51.78509044647217,29,31,30,100,73,36,35,30,1
1571,51.80733609199524,33,33,29,104,70,37,37,31,1
1572,51.82218337059021,37,35,31,107,83,36,42,29,1
1573,51.84489703178406,44,39,28,84,80,37,44,30,1
1574,51.867544651031494,48,40,30,97,95,40,48,31,1
1575,51.88271689414978,48,43,35,95,101,43,52,34,1
1576,51.90492868423462,44,42,37,89,97,40,51,31,1
1577,51.927656412124634,41,40,36,86,85,40,49,35,1
1578,51.94217252731323,39,36,37,90,83,40,45,35,1
1579,51.964924335479736,37,37,37,102,74,43,46,36,1
1580,51.987269163131714,39,33,35,100,73,43,44,34,1
1581,52.001798152923584,40,34,38,100,77,44,48,38,1
1582,52.02423858642578,44,36,40,100,86,42,48,35,1
1583,52.04730796813965,39,35,40,104,89,42,47,34,1
1584,52.06236910820007,36,35,41,102,106,40,49,35,1
1585,52.084933042526245,39,40,47,105,112,38,50,38,1
1586,52.107386350631714,41,43,48,110,120,42,47,36,1
1587,52.12199664115906,38,40,47,111,115,45,46,35,1
1588,52.14454936981201,40,42,49,110,120,48,48,36,1
1589,52.16677165031433,40,41,46,90,104,48,45,36,1
1590,52.18281126022339,33,33,40,84,87,46,40,31,1
1591,52.204845666885376,32,28,36,81,83,43,43,30,1
1592,52.22730994224548,34,35,42,97,85,41,43,32,1
1593,52.250248193740845,31,34,39,94,72,39,40,32,1
1594,52.27303433418274,33,37,43,95,74,36,41,31,1
1595,52.28753662109375,36,42,43,101,81,41,44,33,1
1596,52.310439586639404,35,40,47,103,80,39,40,31,1
1597,52.32512164115906,33,37,41,84,73,39,40,31,1
1598,52.34851264953613,39,43,51,98,86,39,43,34,1
1599,52.370378732681274,39,42,52,101,82,37,42,34,1
1600,52.384376525878906,38,37,49,94,78,32,39,32,1
1601,52.40723967552185,38,40,48,87,73,35,39,34,1
1602,52.42978620529175,39,40,51,87,75,37,38,33,1
1603,52.444746017456055,36,31,43,70,61,31,34,30,1
1604,52.467461585998535,34,30,41,66,66,33,32,29,1
1605,52.49857783317566,35,34,41,66,66,34,32,31,1
1606,52.504892349243164,31,29,37,70,66,30,29,28,1
1607,52.527428150177,30,29,33,74,66,29,29,27,1
1608,52.549774169921875,30,33,36,77,63,33,33,26,1
1609,52.56488919258118,33,38,38,77,57,34,36,27,1
1610,52.58739423751831,34,41,39,72,52,39,36,29,1
1611,52.609896421432495,35,43,39,70,55,43,36,30,1
1612,52.624826192855835,36,44,42,77,57,44,40,34,1
1613,52.64722800254822,36,44,42,85,60,45,37,34,1
1614,52.670225858688354,31,40,38,83,59,43,34,34,1
1615,52.68541383743286,26,33,36,90,65,37,32,32,1
1616,52.70744848251343,27,32,35,90,61,31,32,31,1
1617,52.73036456108093,34,40,37,97,73,37,35,34,1
1618,52.744861364364624,36,41,35,84,71,35,36,33,1
1619,52.775259256362915,36,43,34,87,71,35,36,33,1
1620,52.789978981018066,36,43,36,93,70,36,41,31,1
1621,52.80494713783264,38,46,41,97,75,37,41,33,1
1622,52.827199935913086,30,38,39,80,58,26,35,27,1
1623,52.8503692150116,28,34,39,83,56,24,37,28,1
1624,52.864991426467896,29,34,45,99,70,28,40,31,1
1625,52.88749575614929,30,38,47,118,94,31,40,36,1
1626,52.91019558906555,29,34,43,113,88,31,40,35,1
1627,52.92499661445618,32,36,44,119,93,33,44,37,1
1628,52.95552659034729,32,35,40,116,92,33,42,37,1
1629,52.96969938278198,34,37,35,104,87,32,43,35,1
1630,52.984983682632446,39,44,33,68,60,32,43,33,1
1631,53.00768804550171,42,47,35,70,64,35,44,37,1
1632,53.02970361709595,41,46,31,66,66,36,40,35,1
1633,53.052271366119385,44,51,43,88,73,39,44,38,1
1634,53.06762385368347,42,52,49,94,77,41,50,38,1
1635,53.09053039550781,37,45,48,92,76,39,47,35,1
1636,53.104928970336914,39,49,49,96,81,38,49,33,1
1637,53.12743163108826,40,50,52,96,77,35,50,31,1
1638,53.14986610412598,40,47,47,78,69,36,50,28,1
1639,53.17424535751343,42,44,42,66,66,33,43,30,1
1640,53.18752312660217,43,44,42,72,72,34,45,33,1
1641,53.209859132766724,37,34,39,67,72,34,41,30,1
1642,53.23258423805237,35,33,37,66,73,35,40,32,1
1643,53.2473578453064,38,34,34,65,75,32,36,32,1
1644,53.269842863082886,36,34,34,59,66,30,32,33,1
1645,53.29258608818054,37,36,41,58,57,28,35,31,1
1646,53.30769443511963,36,37,42,61,51,27,35,31,1
1647,53.330418825149536,33,35,40,56,47,27,33,31,1
1648,53.35255002975464,27,32,39,52,44,27,31,31,1
1649,53.36735987663269,36,44,52,72,59,29,38,36,1
1650,53.389790773391724,35,46,46,69,63,31,36,35,1
1651,53.41240835189819,36,46,44,66,59,30,35,37,1
1652,53.427213191986084,39,50,48,87,78,33,40,38,1
1653,53.449737787246704,42,50,52,107,99,34,43,37,1
1654,53.4726037979126,34,41,38,96,92,34,39,32,1
1655,53.4873628616333,36,40,41,100,98,36,39,33,1
1656,53.50997877120972,37,43,42,100,99,37,39,34,1
1657,53.53247141838074,39,40,39,86,94,43,42,37,1
1658,53.55581045150757,37,38,35,62,73,40,42,39,1
1659,53.5708212852478,39,38,36,62,76,39,39,35,1
1660,53.59243822097778,37,36,36,58,67,39,42,36,1
1661,53.60722494125366,38,37,37,61,68,39,42,33,1
1662,53.62997484207153,33,32,34,56,56,28,34,27,1
1663,53.66054010391235,35,34,33,55,54,28,33,25,1
1664,53.66720461845398,33,32,33,58,51,30,33,26,1
1665,53.68960952758789,30,28,27,56,43,28,30,24,1
1666,53.713340044021606,32,31,30,50,42,27,30,26,1
1667,53.72734713554382,34,35,34,60,42,31,34,27,1
1668,53.7501540184021,31,33,33,62,48,34,35,26,1
1669,53.77259540557861,35,36,35,64,51,34,37,29,1
1670,53.78745365142822,37,39,38,70,59,34,36,31,1
1671,53.81032729148865,38,38,40,72,65,35,38,33,1
1672,53.83258867263794,36,35,38,68,69,38,41,37,1
1673,53.84721779823303,35,35,39,65,66,37,40,36,1
1674,53.87006163597107,33,32,37,61,67,37,36,35,1
1675,53.89234924316406,32,29,35,54,63,36,36,34,1
1676,53.90730547904968,29,26,34,69,68,35,35,31,1
1677,53.92983841896057,35,30,38,72,68,30,33,28,1
1678,53.952322244644165,35,34,40,77,68,29,35,28,1
1679,53.967315435409546,36,37,47,90,69,28,38,28,1
1680,53.991974115371704,41,43,48,93,76,32,45,30,1
1681,54.012797832489014,46,51,59,86,73,31,52,35,1
1682,54.0359570980072,40,48,55,88,71,31,50,35,1
1683,54.049816370010376,42,47,56,98,79,34,51,39,1
1684,54.072354316711426,46,49,57,111,86,36,54,40,1
1685,54.087798833847046,44,45,58,111,81,33,50,37,1
1686,54.110140323638916,38,36,49,114,80,36,42,33,1
1687,54.13281869888306,39,35,49,118,79,37,42,29,1
1688,54.15588068962097,38,34,46,106,71,34,38,26,1
1689,54.17024803161621,34,37,53,106,86,46,52,28,1
1690,54.19337344169617,30,35,54,121,99,47,52,30,1
1691,54.21568179130554,31,35,52,123,101,49,54,29,1
1692,54.229814529418945,32,37,55,117,104,49,58,32,1
1693,54.25249457359314,34,39,57,118,108,51,59,36,1
1694,54.276886224746704,34,34,44,103,96,43,44,34,1
1695,54.29031729698181,38,36,45,86,86,44,49,36,1
1696,54.31255388259888,43,43,50,73,84,41,52,39,1
1697,54.33600115776062,44,44,52,73,88,43,50,41,1
1698,54.35091233253479,45,44,52,75,96,45,55,41,1
1699,54.37252736091614,46,46,56,69,91,41,59,41,1
1700,54.395814657211304,44,45,55,64,88,39,53,38,1
1701,54.40990972518921,38,41,52,67,99,40,51,39,1
1702,54.43279552459717,38,42,49,72,98,44,54,39,1
1703,54.45528745651245,40,43,49,69,87,41,54,36,1
1704,54.47810125350952,37,40,41,61,82,38,48,35,1
1705,54.49229669570923,41,42,39,61,88,40,50,40,1
1706,54.51652765274048,44,44,39,66,79,41,52,37,1
1707,54.529842138290405,43,41,37,61,70,34,47,34,1
1708,54.55251669883728,38,38,34,60,66,34,40,33,1
1709,54.575613498687744,40,43,39,64,74,36,42,35,1
1710,54.59000086784363,38,42,39,65,64,34,37,28,1
1711,54.61258554458618,34,37,36,64,61,32,32,30,1
1712,54.635608196258545,38,41,38,64,66,33,33,34,1
1713,54.65010714530945,40,42,40,62,65,33,33,35,1
1714,54.67267370223999,43,42,42,68,69,34,36,34,1
1715,54.6956627368927,43,41,46,70,81,41,43,41,1
1716,54.70984601974487,42,40,47,70,79,39,42,39,1
1717,54.73199009895325,42,44,54,83,79,42,48,40,1
1718,54.75556659698486,39,49,61,92,87,42,52,41,1
1719,54.769927978515625,35,44,55,89,83,40,47,41,1
1720,54.79272651672363,37,46,56,90,82,41,48,39,1
1721,54.81570482254028,37,48,55,85,80,43,48,39,1
1722,54.82984113693237,37,47,47,71,78,42,46,36,1
1723,54.85268783569336,37,41,37,60,70,43,42,33,1
1724,54.875253677368164,40,42,37,66,73,46,44,33,1
1725,54.889347553253174,43,44,36,64,61,43,43,40,1
1726,54.912341833114624,45,45,40,73,71,49,48,38,1
1727,54.93568563461304,43,38,36,74,68,47,44,37,1
1728,54.94989061355591,45,41,49,81,79,48,49,38,1
1729,54.972901344299316,48,51,57,89,85,46,58,42,1
1730,54.99589514732361,42,47,55,85,90,43,58,31,1
1731,55.01019644737244,39,43,51,83,82,35,53,33,1
1732,55.03247046470642,53,67,66,97,102,48,71,44,1
1733,55.05571460723877,52,66,61,91,92,46,67,45,1
1734,55.07046318054199,48,58,56,80,83,44,59,41,1
1735,55.09245991706848,49,58,54,80,79,43,56,41,1
1736,55.11563038825989,53,64,57,84,86,45,59,41,1
1737,55.137778997421265,41,40,40,66,63,32,37,29,1
1738,55.15270495414734,39,40,37,71,74,32,36,28,1
1739,55.17581605911255,41,43,42,72,72,37,40,31,1
1740,55.19768762588501,40,41,42,69,68,38,39,30,1
1741,55.212493896484375,35,32,38,60,59,39,36,27,1
1742,55.23608446121216,34,32,40,66,65,43,37,27,1
1743,55.258134841918945,36,35,40,68,61,43,39,29,1
1744,55.27248501777649,29,30,30,64,61,39,34,26,1
1745,55.29528999328613,28,36,37,83,73,41,42,34,1
1746,55.3182692527771,32,40,41,86,77,38,45,35,1
1747,55.332353591918945,31,39,39,82,72,32,42,35,1
1748,55.35567235946655,32,40,41,79,74,36,44,34,1
1749,55.37835717201233,38,41,48,87,84,40,49,36,1
1750,55.39248538017273,41,38,48,85,87,42,48,32,1
1751,55.41603207588196,37,34,45,91,89,42,48,31,1
1752,55.43781542778015,44,44,54,102,98,49,60,36,1
1753,55.45185732841492,44,40,53,104,93,48,61,35,1
1754,55.47583866119385,44,45,55,106,92,46,63,41,1
1755,55.49807596206665,45,50,56,109,94,50,65,44,1
1756,55.51242232322693,47,51,57,104,92,53,63,45,1
1757,55.535828828811646,41,44,47,96,82,48,53,43,1
1758,55.55845665931702,48,50,55,101,93,49,58,45,1
1759,55.57268977165222,46,49,54,107,96,52,55,40,1
1760,55.595781087875366,45,47,49,97,86,45,49,38,1
1761,55.61850070953369,45,49,52,95,85,44,52,40,1
1762,55.63249897956848,47,51,56,95,87,42,51,37,1
1763,55.655818700790405,39,44,45,84,74,38,39,34,1
1764,55.67832136154175,39,40,40,65,57,33,37,33,1
1765,55.69266414642334,37,39,39,69,59,31,43,34,1
1766,55.71656537055969,39,36,36,81,63,32,44,33,1
1767,55.7381317615509,36,34,33,81,63,31,44,34,1
1768,55.75254034996033,35,39,38,92,70,34,48,33,1
1769,55.77579617500305,32,37,35,90,69,33,46,32,1
1770,55.79820895195007,29,30,33,86,65,34,41,27,1
1771,55.81257176399231,30,30,39,96,74,30,39,26,1
1772,55.835344076156616,33,33,38,100,78,29,41,25,1
1773,55.857617139816284,34,28,34,93,75,28,41,26,1
1774,55.872419595718384,35,30,39,95,78,28,41,28,1
1775,55.9031457901001,43,43,50,96,81,31,48,33,1
1776,55.92567229270935,40,42,46,75,66,37,46,35,1
1777,55.932464599609375,40,41,47,71,64,40,45,38,1
1778,55.95515465736389,38,40,46,73,79,41,43,40,1
1779,55.978118658065796,40,40,48,71,77,40,44,40,1
1780,55.99248814582825,28,28,37,67,71,37,32,37,1
1781,56.01535391807556,30,29,36,76,78,34,32,35,1
1782,56.03825879096985,33,32,38,77,78,31,38,36,1
1783,56.060874938964844,33,34,39,75,58,30,38,33,1
1784,56.075286626815796,34,36,34,76,59,31,40,34,1
1785,56.098074436187744,37,37,34,74,63,29,41,32,1
1786,56.12067699432373,35,37,36,78,57,27,43,32,1
1787,56.134917974472046,40,40,37,78,60,31,43,34,1
1788,56.158021688461304,42,44,43,91,72,32,43,34,1
1789,56.18074893951416,42,42,43,92,71,30,40,35,1
1790,56.194952964782715,41,42,41,95,70,32,41,35,1
1791,56.218369483947754,44,47,43,87,67,35,42,37,1
1792,56.240790367126465,35,41,38,80,60,33,34,29,1
1793,56.25546407699585,36,37,39,70,51,36,43,33,1
1794,56.2781925201416,39,36,42,71,55,39,46,31,1
1795,56.3008074760437,40,39,54,77,68,42,53,33,1
1796,56.3144907951355,36,34,50,79,73,40,51,31,1
1797,56.33820724487305,36,34,54,84,85,40,53,31,1
1798,56.36031794548035,35,38,51,79,86,39,48,32,1
1799,56.37461996078491,36,48,54,77,88,41,52,37,1
1800,56.39810848236084,39,48,47,70,80,37,45,40,1
1801,56.42172360420227,39,48,51,72,78,39,46,41,1
1802,56.43520760536194,43,49,51,79,70,41,50,42,1
1803,56.46033549308777,42,45,47,89,67,38,47,40,1
1804,56.488576889038086,37,35,44,93,62,33,42,36,1
1805,56.49502968788147,32,32,39,91,61,33,41,34,1
1806,56.51815462112427,40,35,40,91,63,38,44,35,1
1807,56.54073095321655,38,35,41,87,57,34,39,34,1
1808,56.55533194541931,44,44,45,79,59,41,47,35,1
1809,56.57836651802063,44,43,46,86,73,46,53,38,1
1810,56.60075402259827,46,42,48,93,75,48,52,37,1
1811,56.61485743522644,38,42,45,85,70,42,49,37,1
1812,56.638593912124634,40,39,44,83,82,48,54,40,1
1813,56.66079831123352,35,34,47,86,86,46,51,39,1
1814,56.67508101463318,35,35,47,78,78,41,45,37,1
1815,56.698220014572144,37,36,46,73,81,40,48,38,1
1816,56.72113490104675,41,38,50,76,83,45,52,37,1
1817,56.73635268211365,39,39,49,81,74,41,47,31,1
1818,56.75814700126648,36,37,44,72,71,37,45,30,1
1819,56.78816771507263,37,41,43,67,69,38,45,35,1
1820,56.79510736465454,39,42,45,63,65,41,46,37,1
1821,56.81847095489502,45,42,45,70,71,43,49,39,1
1822,56.84034872055054,49,46,46,67,74,44,51,42,1
1823,56.85534739494324,50,46,47,70,71,47,49,41,1
1824,56.87829232215881,50,44,48,75,70,47,48,37,1
1825,56.90064287185669,46,42,46,75,70,44,48,32,1
1826,56.91462063789368,37,43,48,72,68,36,40,29,1
1827,56.93764805793762,31,39,45,66,66,38,41,30,1
1828,56.961201906204224,32,40,43,74,73,43,44,34,1
1829,56.97532415390015,36,45,41,77,81,45,45,36,1
1830,56.99784255027771,39,50,46,86,87,46,44,37,1
1831,57.02079153060913,39,45,39,82,82,48,41,37,1
1832,57.043559551239014,40,45,43,84,80,44,37,34,1
1833,57.05808687210083,39,44,45,79,75,40,36,32,1
1834,57.08090353012085,35,40,44,70,63,36,33,31,1
1835,57.1031768321991,32,35,38,54,51,33,30,28,1
1836,57.118228912353516,30,35,39,59,58,32,35,29,1
1837,57.140382051467896,27,35,35,67,64,32,37,31,1
1838,57.16273832321167,34,42,40,71,73,38,46,35,1
1839,57.17822074890137,34,39,39,77,81,39,48,35,1
1840,57.200796365737915,36,40,42,81,88,41,51,37,1
1841,57.22324061393738,40,48,46,84,86,40,50,37,1
1842,57.23843455314636,41,48,47,76,83,43,53,38,1
1843,57.26821517944336,36,45,43,84,88,33,46,36,1
1844,57.29068303108215,35,44,43,87,90,34,44,38,1
1845,57.29817318916321,36,44,41,91,88,36,43,37,1
1846,57.32074952125549,32,38,37,89,88,37,43,37,1
1847,57.34319806098938,32,41,40,99,91,39,42,35,1
1848,57.365665674209595,32,38,38,89,85,44,47,39,1
1849,57.380701780319214,34,39,37,93,86,46,48,37,1
1850,57.4031617641449,39,41,40,88,85,49,51,39,1
1851,57.41920280456543,40,40,38,90,84,47,52,38,1
1852,57.441025257110596,40,35,32,77,80,45,50,38,1
1853,57.463162422180176,45,40,37,76,74,45,50,35,1
1854,57.477561712265015,42,41,39,66,68,42,49,35,1
1855,57.501142263412476,38,38,37,66,63,37,46,32,1
1856,57.523298263549805,38,42,44,79,74,45,52,36,1
1857,57.53773474693298,39,45,46,88,75,46,52,36,1
1858,57.56052017211914,35,41,41,84,72,44,46,31,1
1859,57.582733392715454,39,43,41,86,69,46,47,29,1
1860,57.59749937057495,40,46,47,86,78,49,50,32,1
1861,57.621413469314575,39,46,42,74,83,42,42,28,1
1862,57.64370107650757,43,50,50,71,84,41,46,35,1
1863,57.65744495391846,40,48,49,75,87,42,44,37,1
1864,57.68083095550537,38,46,48,71,87,39,41,37,1
1865,57.7034866809845,50,60,62,80,90,39,47,41,1
1866,57.717597007751465,49,57,63,73,76,40,47,41,1
1867,57.740988969802856,44,51,56,71,71,40,41,36,1
1868,57.763283252716064,47,54,60,71,71,38,43,40,1
1869,57.77742528915405,46,53,61,75,72,37,42,40,1
1870,57.800843954086304,31,33,39,61,55,32,31,34,1
1871,57.82312297821045,36,34,40,69,58,32,32,36,1
1872,57.83797240257263,36,34,38,75,62,32,35,39,1
1873,57.8607964515686,33,34,35,74,61,32,36,33,1
1874,57.883753061294556,35,35,40,79,65,36,41,32,1
1875,57.898101568222046,36,38,47,82,68,37,45,31,1
1876,57.92088437080383,33,39,50,81,68,38,48,30,1
1877,57.94327139854431,34,40,53,76,69,39,46,27,1
1878,57.96620273590088,32,36,50,75,68,36,44,27,1
1879,57.98034381866455,33,38,47,66,61,37,44,32,1
1880,58.00238609313965,31,36,40,70,62,38,38,34,1
1881,58.02602767944336,28,33,33,63,60,35,32,34,1
1882,58.0409791469574,27,34,31,60,57,33,34,34,1
1883,58.06328344345093,38,44,40,66,64,38,42,38,1
1884,58.08544325828552,36,41,39,67,70,36,38,33,1
1885,58.100850343704224,37,42,40,60,71,35,38,32,1
1886,58.12322497367859,44,48,46,77,81,37,51,32,1
1887,58.14582896232605,47,53,50,85,85,36,51,36,1
1888,58.160887479782104,46,53,50,90,87,37,49,37,1
1889,58.18379998207092,52,60,63,117,105,45,59,45,1
1890,58.20578098297119,54,61,64,122,105,45,60,44,1
1891,58.22069478034973,52,60,62,118,100,45,53,45,1
1892,58.24325203895569,57,64,67,128,111,49,58,47,1
1893,58.26660776138306,56,64,67,128,116,49,59,45,1
1894,58.28106212615967,49,57,61,117,105,44,52,41,1
1895,58.30359625816345,51,62,65,115,108,45,55,42,1
1896,58.32591724395752,49,57,62,111,108,42,53,40,1
1897,58.34024453163147,41,49,56,93,94,39,51,36,1
1898,58.363444089889526,41,43,53,88,84,40,50,37,1
1899,58.38619518280029,40,40,48,68,73,37,46,34,1
1900,58.4000346660614,35,30,39,68,67,36,42,35,1
1901,58.42326831817627,40,40,53,84,85,47,51,38,1
1902,58.45339488983154,42,45,53,87,96,49,47,37,1
1903,58.45994424819946,39,43,49,81,91,45,44,35,1
1904,58.48325252532959,39,43,48,86,92,46,45,34,1
1905,58.505717754364014,40,44,49,80,90,47,45,31,1
1906,58.520047187805176,34,35,35,57,67,36,33,27,1
1907,58.54274940490723,31,24,32,49,47,38,32,28,1
1908,58.57414102554321,33,30,36,64,53,39,35,30,1
1909,58.58012294769287,40,38,40,66,60,44,37,37,1
1910,58.60348629951477,39,39,38,73,61,43,36,37,1
1911,58.625725746154785,39,39,37,82,66,47,37,39,1
1912,58.63997411727905,38,40,38,82,69,44,39,39,1
1913,58.66355633735657,36,39,35,72,62,41,36,37,1
1914,58.68605303764343,25,30,29,67,52,36,32,31,1
1915,58.70846915245056,27,30,30,63,55,38,33,35,1
1916,58.72369647026062,31,34,37,65,66,35,39,34,1
1917,58.74570679664612,32,34,35,63,61,33,36,36,1
1918,58.76015281677246,34,31,36,61,62,32,35,34,1
1919,58.7832133769989,35,33,37,65,64,31,37,34,1
1920,58.8057336807251,33,33,34,62,62,27,37,30,1
1921,58.82016849517822,29,30,26,52,42,22,30,30,1
1922,58.84346151351929,28,28,25,51,44,21,30,26,1
1923,58.86561918258667,28,29,23,53,47,27,32,29,1
1924,58.8881573677063,27,30,23,46,45,31,33,29,1
1925,58.90363597869873,32,40,36,52,55,37,40,33,1
1926,58.94116544723511,32,41,37,54,70,39,43,33,1
1927,58.94886565208435,29,40,37,54,68,39,42,35,1
1928,58.96337652206421,31,40,41,55,69,36,42,33,1
1929,58.98627471923828,36,43,45,58,71,37,43,33,1
1930,59.00833201408386,33,30,35,54,75,34,39,28,1
1931,59.02333307266235,35,30,35,52,65,34,37,30,1
1932,59.046069622039795,38,32,39,61,70,35,38,29,1
1933,59.06908106803894,38,39,40,64,73,38,41,30,1
1934,59.08321022987366,38,37,37,74,83,35,41,29,1
1935,59.10570430755615,39,41,39,81,76,34,43,32,1
1936,59.12824106216431,40,41,43,84,76,35,43,33,1
1937,59.143622636795044,41,41,44,81,72,38,45,36,1
1938,59.165892362594604,39,37,39,77,65,34,43,37,1
1939,59.18779492378235,35,35,38,65,53,32,40,37,1
1940,59.2099072933197,35,35,39,56,49,35,39,37,1
1941,59.2251341342926,32,33,34,46,49,34,40,35,1
1942,59.24773597717285,30,35,31,55,53,34,41,31,1
1943,59.26449203491211,29,33,30,56,56,35,38,32,1
1944,59.28693723678589,36,42,34,60,60,38,39,33,1
1945,59.31095099449158,36,42,32,65,61,37,38,36,1
1946,59.32461500167847,36,42,32,79,64,35,37,37,1
1947,59.34700965881348,41,45,31,72,65,32,38,39,1
1948,59.367026567459106,42,46,34,74,68,31,40,37,1
1949,59.38353776931763,40,40,31,79,72,28,41,36,1
1950,59.407450675964355,37,37,32,74,70,27,40,32,1
1951,59.43617224693298,41,41,34,68,71,31,42,31,1
1952,59.44374752044678,36,34,36,81,81,32,39,30,1
1953,59.4667546749115,35,30,36,85,79,34,38,34,1
1954,59.48755478858948,32,32,39,86,73,35,37,35,1
1955,59.511977195739746,35,33,39,88,75,35,38,33,1
1956,59.52736473083496,30,27,37,83,70,34,34,34,1
1957,59.5483980178833,31,32,37,76,58,33,35,33,1
1958,59.56362462043762,33,35,41,83,56,32,42,31,1
1959,59.5861759185791,33,33,37,74,53,31,41,29,1
1960,59.60763597488403,32,34,38,76,56,29,42,31,1
1961,59.6248517036438,32,35,37,76,60,31,43,31,1
1962,59.64686059951782,33,31,35,70,56,30,43,29,1
1963,59.66750383377075,31,31,28,49,53,30,35,28,1
1964,59.68408489227295,32,31,29,48,56,32,36,30,1
1965,59.706992864608765,30,27,24,40,51,31,36,30,1
1966,59.727370500564575,36,29,31,53,47,32,36,29,1
1967,59.74371528625488,34,29,32,54,45,32,35,31,1
1968,59.76791763305664,34,27,34,58,54,35,34,31,1
1969,59.78773593902588,36,30,34,61,54,35,36,30,1
1970,59.81198596954346,36,34,36,66,61,37,35,30,1
1971,59.825971364974976,33,35,35,61,61,35,33,33,1
1972,59.84762644767761,34,41,37,74,84,38,42,36,1
1973,59.870118141174316,35,40,37,74,82,34,43,35,1
1974,59.887686252593994,34,40,39,78,80,32,39,34,1
1975,59.90752935409546,35,38,38,78,76,33,40,34,1
1976,59.93260645866394,34,36,39,79,77,31,44,33,1
1977,59.94726538658142,33,30,37,70,57,27,36,28,1
1978,59.96722149848938,32,30,37,70,60,25,36,28,1
1979,59.98978233337402,33,31,39,68,68,30,41,29,1
1980,60.00754237174988,32,32,41,68,72,26,40,31,1
1981,60.027549505233765,28,30,37,59,67,27,35,30,1
1982,60.050060987472534,31,33,38,56,69,30,36,32,1
1983,60.0670120716095,32,33,38,70,70,31,36,34,1
1984,60.087066888809204,31,30,36,77,66,28,36,35,1
1985,60.110233545303345,36,32,36,76,68,33,39,37,1
1986,60.14319896697998,39,31,36,79,69,34,41,36,1
1987,60.14755368232727,37,35,37,87,75,34,41,36,1
1988,60.17055368423462,39,36,38,82,70,36,43,38,1
1989,60.18824124336243,37,35,34,73,67,37,39,37,1
1990,60.207701444625854,32,36,31,73,62,34,35,34,1
1991,60.2316517829895,32,39,32,86,70,33,35,35,1
1992,60.246009826660156,31,33,30,79,65,35,35,33,1
1993,60.267682790756226,27,32,28,71,63,32,30,30,1
1994,60.289695739746094,29,38,33,71,63,32,31,28,1
1995,60.30616879463196,30,34,33,71,61,33,33,29,1
1996,60.32757306098938,29,30,32,51,52,33,31,28,1
1997,60.350319147109985,30,36,37,53,46,32,33,26,1
1998,60.37518668174744,35,41,37,51,48,33,35,27,1
1999,60.38760542869568,36,38,36,55,56,33,37,29,1
2000,60.41071701049805,34,39,37,57,55,31,34,26,1
2001,60.42703986167908,37,41,38,61,56,30,37,26,1
2002,60.4476683139801,41,43,42,70,64,32,43,29,1
2003,60.47027516365051,41,41,48,74,66,33,43,32,1
2004,63.55335569381714,35,49,55,235,156,44,41,30,2
2005,63.5752158164978,33,46,57,256,171,44,42,32,2
2006,63.59771776199341,34,43,55,243,159,42,41,35,2
2007,63.61272430419922,35,43,52,233,130,41,39,37,2
2008,63.635178565979004,33,34,47,241,130,38,34,37,2
2009,63.65806579589844,35,36,46,227,131,40,37,37,2
2010,63.68032932281494,33,38,43,210,135,37,36,35,2
2011,63.69530940055847,33,37,42,223,164,43,38,32,2
2012,65.20490336418152,46,52,67,211,162,45,51,34,2
2013,65.21789050102234,36,38,52,173,139,33,39,28,2
2014,65.24041843414307,34,38,45,260,195,40,34,27,2
2015,65.26396131515503,34,39,52,301,236,48,28,24,2
2016,65.27774238586426,34,42,56,316,248,51,30,27,2
2017,65.30032205581665,35,45,60,337,264,53,35,29,2
2018,65.33096599578857,38,45,59,329,255,52,35,32,2
2019,65.33782744407654,37,41,58,262,221,47,34,32,2
2020,65.36039113998413,40,39,52,233,205,41,35,31,2
2021,65.39999532699585,37,34,46,212,189,36,34,29,2
2022,65.40269351005554,32,27,33,147,159,34,28,26,2
2023,65.42024445533752,29,27,36,159,166,32,27,23,2
2024,65.44292330741882,31,26,34,165,165,31,28,23,2
2025,65.45776128768921,32,32,37,171,148,28,36,24,2
2026,65.4810905456543,35,38,39,205,196,29,35,24,2
2027,65.50344944000244,39,37,38,219,208,28,35,24,2
2028,65.51769709587097,40,38,37,215,205,30,38,26,2
2029,65.54105687141418,38,41,46,221,198,31,38,27,2
2030,65.56366181373596,37,42,45,212,202,34,34,27,2
2031,65.59402751922607,39,37,46,209,174,36,34,26,2
2032,65.60810160636902,36,36,48,202,175,37,33,28,2
2033,65.63104724884033,36,42,59,277,244,42,42,34,2
2034,65.64701962471008,34,41,56,267,253,42,44,34,2
2035,65.66050243377686,32,41,57,297,284,41,45,37,2
2036,65.68307256698608,28,44,55,278,275,40,44,37,2
2037,65.7063627243042,30,45,56,276,273,39,48,40,2
2038,65.7204487323761,29,38,43,204,224,34,37,35,2
2039,65.74347472190857,32,35,39,212,213,32,37,37,2
2040,65.76610565185547,34,37,42,164,161,32,35,36,2
2041,65.78041434288025,36,35,43,185,159,35,35,37,2
2042,65.8037576675415,34,36,43,213,185,40,34,35,2
2043,65.8260133266449,33,37,42,210,173,41,33,33,2
2044,65.84067630767822,34,39,44,205,172,42,31,28,2
2045,65.86340928077698,34,38,56,258,241,51,37,32,2
2046,65.89390015602112,30,37,56,253,245,49,39,32,2
2047,65.9086549282074,33,38,56,233,221,50,42,34,2
2048,65.9306230545044,35,40,62,322,315,61,54,36,2
2049,65.9457323551178,34,38,62,329,320,61,54,38,2
2050,65.96901607513428,33,38,48,283,267,55,52,32,2
2051,65.98359632492065,36,38,49,279,266,56,54,34,2
2052,66.00608277320862,37,38,48,275,261,51,54,33,2
2053,66.0221209526062,37,36,41,202,153,39,43,32,2
2054,66.04303574562073,44,45,48,195,159,43,47,33,2
2055,66.06596541404724,44,44,51,207,200,42,43,32,2
2056,66.08024597167969,44,45,53,215,227,44,47,34,2
2057,66.10276627540588,42,42,52,229,227,44,43,32,2
2058,66.12621927261353,40,41,57,201,225,43,44,33,2
2059,66.14033913612366,37,38,49,219,226,37,40,31,2
2060,66.16331505775452,35,41,43,211,194,37,40,33,2
2061,66.18611884117126,32,40,36,190,151,30,30,30,2
2062,66.2006847858429,30,40,38,190,165,33,29,29,2
2063,66.22282195091248,32,41,37,192,175,35,34,30,2
2064,66.24602317810059,30,34,42,168,174,41,39,30,2
2065,66.26061201095581,30,29,46,206,190,41,40,29,2
2066,66.28277373313904,35,32,49,227,205,41,42,30,2
2067,66.30598831176758,37,32,47,216,190,41,41,31,2
2068,66.32037663459778,36,34,52,227,177,40,39,29,2
2069,66.34233069419861,33,37,52,246,179,41,41,30,2
2070,66.38185024261475,36,40,55,260,199,44,42,29,2
2071,66.3840696811676,32,38,54,245,188,45,43,28,2
2072,66.40247774124146,30,38,53,247,201,47,44,30,2
2073,66.43324279785156,30,35,48,259,208,45,41,28,2
2074,66.4425597190857,33,39,48,245,198,41,36,29,2
2075,66.46320390701294,31,37,42,198,166,36,34,30,2
2076,66.48647499084473,33,36,43,189,158,33,31,29,2
2077,66.508474111557,34,39,43,202,163,32,31,31,2
2078,66.52357649803162,41,49,41,168,140,32,32,32,2
2079,66.54601120948792,39,43,35,150,145,31,32,30,2
2080,66.56871342658997,37,44,37,179,182,34,32,29,2
2081,66.58275270462036,35,44,44,229,206,39,37,28,2
2082,66.60605716705322,36,46,59,275,229,44,41,28,2
2083,66.62876272201538,30,38,61,285,251,49,42,26,2
2084,66.65096974372864,31,39,61,307,254,51,42,27,2
2085,66.66617894172668,31,35,59,288,220,48,40,29,2
2086,66.68874335289001,33,36,57,292,243,49,39,30,2
2087,66.70272397994995,31,32,49,285,245,50,51,30,2
2088,66.72600364685059,28,30,46,280,235,45,50,29,2
2089,66.74859690666199,29,34,49,280,226,46,53,31,2
2090,66.76336073875427,30,34,50,298,243,49,54,32,2
2091,66.78574085235596,31,34,53,269,216,49,59,32,2
2092,66.80970811843872,32,35,44,234,190,44,46,31,2
2093,66.82303380966187,33,36,45,225,183,45,47,32,2
2094,66.85346031188965,31,33,44,215,190,43,44,31,2
2095,66.86849522590637,31,34,45,198,180,41,45,30,2
2096,69.75533556938171,32,41,43,249,206,33,28,27,2
2097,69.77288103103638,31,41,42,276,210,32,30,28,2
2098,69.79429125785828,30,40,48,280,205,37,32,29,2
2099,69.81508111953735,31,37,45,274,174,40,35,27,2
2100,69.83131098747253,27,33,47,241,145,39,38,28,2
2101,69.8617639541626,26,30,47,244,141,42,37,29,2
2102,69.87522268295288,29,33,48,246,146,41,34,27,2
2103,69.89282941818237,29,34,52,259,153,42,39,29,2
2104,69.91528654098511,27,33,56,244,162,43,42,27,2
2105,69.93561553955078,28,35,55,245,168,42,42,30,2
2106,69.95275378227234,29,36,58,264,170,38,41,34,2
2107,69.99054861068726,29,38,64,277,186,40,43,35,2
2108,69.99548292160034,29,39,56,303,204,40,36,32,2
2109,70.01274609565735,29,40,55,309,208,37,34,35,2
2110,70.0364978313446,28,41,59,315,203,38,34,32,2
2111,70.0555329322815,30,40,58,313,215,39,38,27,2
2112,70.07809519767761,32,38,52,289,203,38,37,26,2
2113,70.09522104263306,31,36,50,235,166,29,38,26,2
2114,70.11659169197083,31,34,45,219,150,27,35,24,2
2115,70.13827896118164,38,40,48,289,191,29,41,29,2
2116,70.15413999557495,39,42,48,311,188,30,40,31,2
2117,70.1755895614624,35,39,46,304,180,32,40,31,2
2118,70.19804453849792,34,38,50,316,183,30,42,33,2
2119,70.21497344970703,35,41,51,341,197,31,45,35,2
2120,70.23550915718079,28,36,44,301,178,40,41,36,2
2121,71.84084153175354,26,31,57,274,218,45,49,32,2
2122,71.85559892654419,30,34,60,307,270,50,48,35,2
2123,71.87907767295837,30,29,58,278,271,52,42,33,2
2124,71.90978455543518,29,26,54,282,256,49,40,36,2
2125,71.92250561714172,31,29,55,278,242,47,44,34,2
2126,71.93824028968811,32,28,54,259,233,45,41,32,2
2127,71.96105241775513,28,24,42,197,157,36,34,27,2
2128,71.97533106803894,26,23,35,183,146,29,31,26,2
2129,71.99755358695984,29,24,42,195,149,32,35,22,2
2130,72.02111148834229,28,22,41,192,146,31,28,21,2
2131,72.03643465042114,26,27,48,214,158,32,32,26,2
2132,72.05787396430969,27,28,50,219,169,37,37,26,2
2133,72.08025074005127,29,29,50,216,152,38,38,26,2
2134,72.09526443481445,28,32,46,189,151,37,37,29,2
2135,72.11773347854614,29,34,56,239,234,44,48,32,2
2136,72.140132188797,29,30,51,242,242,44,46,29,2
2137,72.15508556365967,27,29,47,240,245,42,42,27,2
2138,72.1777651309967,27,29,47,248,246,42,43,28,2
2139,72.20958709716797,30,31,49,250,252,43,47,29,2
2140,72.22295832633972,28,28,34,190,174,35,37,26,2
2141,72.23945760726929,29,28,29,152,146,31,36,28,2
2142,72.26060605049133,29,27,34,171,141,31,38,28,2
2143,72.28358244895935,30,29,36,161,141,29,40,30,2
2144,72.29786491394043,28,22,34,178,151,26,33,26,2
2145,72.32484221458435,28,25,35,248,177,31,35,27,2
2146,72.35098147392273,26,25,40,303,202,39,40,26,2
2147,72.35779905319214,30,33,51,327,214,45,47,29,2
2148,72.38033771514893,27,32,52,331,214,47,46,32,2
2149,72.40300798416138,25,33,50,324,199,48,43,30,2
2150,72.41820645332336,25,32,51,279,183,45,42,30,2
2151,72.44037318229675,30,33,48,239,151,38,40,31,2
2152,72.46249532699585,26,25,34,209,131,28,30,30,2
2153,72.48015022277832,26,30,43,225,167,31,30,25,2
2154,72.50911903381348,26,28,43,225,176,30,30,25,2
2155,72.52278685569763,28,32,46,222,175,31,28,27,2
2156,72.53870725631714,24,31,44,213,170,32,27,25,2
2157,72.56041622161865,24,30,44,197,179,37,27,23,2
2158,72.58318066596985,25,26,30,169,147,31,26,26,2
2159,72.6062490940094,27,30,36,188,149,37,33,27,2
2160,72.6210765838623,24,26,34,206,163,37,34,25,2
2161,72.64315867424011,25,28,37,196,159,38,34,26,2
2162,72.65870428085327,26,29,35,189,153,36,34,26,2
2163,72.68025279045105,27,31,38,221,194,40,33,23,2
2164,72.70273017883301,29,31,34,207,193,34,28,24,2
2165,72.71817588806152,30,34,36,203,202,40,26,28,2
2166,72.74072742462158,31,35,37,222,236,46,27,30,2
2167,72.76525402069092,32,38,38,221,240,43,28,35,2
2168,72.77821016311646,34,39,38,192,207,41,30,35,2
2169,72.80008172988892,31,40,38,186,197,40,31,35,2
2170,72.8320734500885,32,38,34,174,186,35,34,33,2
2171,72.83880734443665,32,41,32,186,154,25,31,29,2
2172,72.86062264442444,37,41,37,230,185,33,37,26,2
2173,72.88315916061401,34,40,37,233,196,34,38,26,2
2174,72.89748287200928,36,40,39,284,231,39,41,26,2
2175,72.92010998725891,35,42,48,326,246,42,41,26,2
2176,72.94293260574341,34,39,50,337,257,45,46,27,2
2177,72.95904016494751,30,36,50,318,222,54,41,27,2
2178,72.98096227645874,32,39,51,320,218,59,39,28,2
2179,73.00320172309875,31,37,51,301,222,61,37,30,2
2180,73.01830840110779,29,35,40,255,198,59,36,30,2
2181,73.04085350036621,31,35,39,215,179,57,30,30,2
2182,73.06499147415161,28,37,34,200,179,45,28,29,2
2183,73.07802891731262,25,34,33,224,206,39,30,28,2
2184,73.10074782371521,29,34,41,219,188,36,32,29,2
2185,73.13142323493958,29,36,47,222,192,34,34,31,2
2186,73.14581656455994,27,35,46,218,186,33,33,31,2
2187,73.1627905368805,29,35,58,300,237,41,43,34,2
2188,73.18570709228516,32,38,61,281,231,40,44,34,2
2189,73.20625233650208,30,38,54,259,209,37,40,33,2
2190,73.22072267532349,30,36,55,259,201,37,40,30,2
2191,73.24338865280151,29,36,54,258,199,38,39,31,2
2192,73.26515197753906,29,35,40,173,157,31,29,26,2
2193,73.28090620040894,30,30,35,185,148,34,28,26,2
2194,73.30409622192383,31,29,36,179,149,34,29,25,2
2195,73.32575559616089,32,30,29,176,150,36,29,25,2
2196,73.34030604362488,33,30,31,190,173,39,30,24,2
2197,73.36256694793701,31,26,34,164,151,39,34,24,2
2198,73.38796329498291,28,26,33,161,133,37,31,24,2
2199,73.40045642852783,28,22,32,171,129,36,30,25,2
2200,73.43121361732483,28,27,34,189,139,37,31,31,2
2201,73.44545841217041,29,31,41,199,125,34,31,32,2
2202,73.46288347244263,33,34,44,221,139,33,28,32,2
2203,73.48319602012634,35,37,44,247,175,34,32,32,2
2204,73.50518655776978,36,43,49,240,178,40,34,31,2
2205,73.5211353302002,36,41,48,221,170,40,32,27,2
2206,73.54315853118896,35,39,44,219,170,38,33,26,2
2207,73.57395386695862,39,43,43,250,235,38,39,30,2
2208,73.58827090263367,38,42,42,254,226,37,38,30,2
2209,73.60257744789124,36,38,38,254,227,34,39,33,2
2210,73.62509679794312,34,39,37,263,232,32,39,33,2
2211,73.64011716842651,35,38,33,259,227,32,37,32,2
2212,73.66283297538757,31,34,38,217,148,32,33,29,2
2213,73.68571925163269,28,31,39,155,111,31,31,28,2
2214,73.70023512840271,29,33,43,213,157,34,31,27,2
2215,73.72424411773682,29,31,48,237,187,39,32,27,2
2216,73.7542200088501,29,29,53,235,189,43,33,29,2
2217,73.76077651977539,27,30,49,256,212,45,33,28,2
2218,73.78320264816284,27,33,50,261,236,46,34,31,2
2219,73.80567383766174,26,35,47,225,231,45,32,30,2
2220,73.82025456428528,26,37,43,212,210,42,31,29,2
2221,73.84367084503174,23,38,36,259,248,43,29,30,2
2222,73.86521220207214,24,36,36,248,237,41,30,30,2
2223,73.88016152381897,26,36,37,255,248,49,32,33,2
2224,73.90459680557251,29,36,37,257,229,47,33,32,2
2225,73.9255998134613,28,34,46,256,226,45,33,32,2
2226,73.94358587265015,27,35,48,202,180,43,34,31,2
2227,73.9719591140747,27,35,54,222,208,47,35,32,2
2228,73.99340486526489,30,33,56,212,170,41,34,26,2
2229,74.0002167224884,26,27,56,218,170,41,32,28,2
2230,74.02251553535461,29,30,53,236,179,45,36,31,2
2231,74.0457193851471,31,33,55,251,184,45,37,30,2
2232,74.06391930580139,32,32,51,223,138,42,38,28,2
2233,74.08338403701782,30,31,47,217,133,38,37,30,2
2234,74.10619282722473,31,33,46,223,145,41,41,28,2
2235,74.1446578502655,28,28,43,201,140,38,38,27,2
2236,74.1473741531372,30,23,37,204,145,36,39,29,2
2237,74.16537642478943,28,25,35,230,163,32,36,29,2
2238,74.18767499923706,29,30,36,234,167,36,38,27,2
2239,74.20304822921753,29,30,37,224,165,36,36,30,2
2240,74.226891040802,30,31,36,218,165,35,35,27,2
2241,74.24824047088623,27,34,37,216,164,35,32,25,2
2242,74.26358366012573,31,36,43,182,163,38,35,24,2
2243,74.28533959388733,35,34,42,224,174,36,34,26,2
2244,74.31646537780762,38,34,39,228,162,37,31,24,2
2245,74.32303714752197,38,35,44,223,166,36,32,24,2
2246,74.34530544281006,38,35,48,204,154,36,31,27,2
2247,74.36954641342163,36,31,43,221,139,33,30,27,2
2248,74.3825752735138,29,30,42,189,124,31,28,27,2
2249,74.40572309494019,26,36,44,178,148,39,35,26,2
2250,74.42823958396912,26,34,40,186,136,39,34,30,2
2251,74.44321966171265,28,33,38,204,139,37,33,27,2
2252,74.46697163581848,27,34,44,209,145,39,35,32,2
2253,74.49616312980652,30,34,44,213,149,39,35,30,2
2254,74.50590205192566,28,28,44,208,126,29,28,32,2
2255,74.52608919143677,29,28,44,199,154,31,28,32,2
2256,74.54870438575745,28,29,40,194,161,30,32,35,2
2257,74.57131767272949,32,33,35,164,152,27,36,35,2
2258,74.58581852912903,29,32,35,164,147,31,35,35,2
2259,74.61695051193237,29,32,39,201,152,30,35,34,2
2260,74.62306666374207,29,34,43,258,175,37,39,33,2
2261,74.64573907852173,31,34,43,256,171,38,36,30,2
2262,74.6699743270874,27,29,41,261,174,39,29,28,2
2263,74.68279242515564,31,29,44,247,176,37,30,27,2
2264,74.7056655883789,32,27,43,237,183,38,32,28,2
2265,74.72812581062317,34,31,38,184,161,33,30,28,2
2266,74.74342584609985,31,29,36,178,161,34,29,27,2
2267,74.76524901390076,33,28,40,185,170,38,33,24,2
2268,74.78848838806152,35,33,40,191,168,41,34,26,2
2269,74.80508518218994,34,36,44,195,167,43,36,24,2
2270,74.8261034488678,32,32,41,187,141,40,33,25,2
2271,74.84771370887756,34,34,44,218,200,41,40,28,2
2272,74.86278295516968,35,38,41,287,258,41,39,28,2
2273,74.88588500022888,32,35,41,319,276,39,40,28,2
2274,74.90953803062439,32,33,38,309,280,38,41,29,2
2275,74.92288136482239,32,30,38,308,283,38,41,28,2
2276,74.9458212852478,32,31,40,291,245,38,40,30,2
2277,74.98448610305786,31,29,40,220,176,36,39,32,2
2278,74.98672223091125,31,27,35,179,148,34,36,31,2
2279,75.00608205795288,31,27,34,181,131,33,34,31,2
2280,75.0281400680542,32,29,35,177,122,33,39,30,2
2281,75.05154967308044,31,25,30,175,110,30,33,26,2
2282,75.06577968597412,28,24,32,179,150,31,33,25,2
2283,75.0887701511383,28,26,34,206,164,33,36,28,2
2284,75.11146545410156,26,26,32,198,161,32,34,29,2
2285,75.12557363510132,24,26,34,207,163,32,29,30,2
2286,75.14818787574768,23,27,37,201,187,33,31,30,2
2287,75.17131400108337,23,26,35,191,156,32,28,29,2
2288,75.18572735786438,21,23,37,157,141,31,26,27,2
2289,75.20859670639038,23,24,36,156,141,31,29,26,2
2290,75.23253345489502,23,24,35,204,169,34,29,24,2
2291,75.24596810340881,26,23,32,239,164,34,28,29,2
2292,75.26818442344666,27,27,41,282,191,38,34,31,2
2293,75.29204249382019,36,43,61,314,203,42,43,38,2
2294,75.30571222305298,36,43,64,310,201,41,43,39,2
2295,75.33650469779968,36,43,64,278,175,37,44,40,2
2296,75.35142159461975,34,43,64,242,153,36,44,37,2
2297,75.36582374572754,33,41,60,196,116,30,40,37,2
2298,75.38807725906372,24,25,40,133,132,30,32,32,2
2299,75.4271593093872,23,27,35,139,138,31,34,31,2
2300,75.4294376373291,25,26,37,134,135,30,34,29,2
2301,75.44828462600708,27,30,47,156,150,30,36,33,2
2302,75.4719603061676,27,29,43,154,150,32,36,32,2
2303,75.4941418170929,27,31,43,180,139,38,36,29,2
2304,75.50861740112305,29,28,50,188,145,42,36,29,2
2305,75.53157138824463,29,27,48,183,152,45,35,30,2
2306,75.54562973976135,29,27,37,197,164,47,32,26,2
2307,75.56826615333557,27,29,38,215,168,48,33,25,2
2308,75.59145164489746,29,32,39,200,153,38,35,25,2
2309,75.60584592819214,28,33,31,187,141,34,33,25,2
2310,75.6369035243988,30,36,33,193,151,34,34,25,2
2311,75.65123271942139,28,37,34,174,129,33,36,27,2
2312,75.66606163978577,28,40,37,153,129,31,34,28,2
2313,75.68918895721436,25,35,34,168,146,33,31,28,2
2314,75.7116310596466,26,38,41,176,145,33,33,26,2
2315,75.72615814208984,25,36,41,221,183,34,32,27,2
2316,75.74814343452454,25,33,45,259,219,48,35,30,2
2317,75.77115488052368,26,28,42,267,228,52,36,30,2
2318,75.78572273254395,28,30,43,255,213,51,37,30,2
2319,75.80860257148743,25,25,38,279,239,52,33,29,2
2320,75.83133816719055,25,25,36,250,214,50,35,27,2
2321,75.84563755989075,26,23,31,208,182,36,29,24,2
2322,75.86832690238953,27,26,32,201,167,32,33,28,2
2323,75.89172315597534,33,34,44,207,197,37,32,30,2
2324,75.90625810623169,36,38,46,173,188,34,33,31,2
2325,75.92856049537659,34,38,46,163,183,34,31,32,2
2326,75.9518051147461,35,40,47,183,182,36,37,32,2
2327,75.96571946144104,35,40,46,184,187,34,32,29,2
2328,75.98824191093445,26,32,36,187,163,30,30,27,2
2329,76.01243376731873,30,28,36,219,179,37,34,28,2
2330,76.03399753570557,30,29,36,232,179,43,37,29,2
2331,76.04944825172424,30,26,33,236,185,43,32,28,2
2332,76.0713267326355,29,26,37,233,187,45,31,28,2
2333,76.09439706802368,30,28,33,225,177,44,33,31,2
2334,76.10821056365967,26,28,34,213,169,43,29,27,2
2335,76.13127207756042,25,28,33,225,162,37,29,29,2
2336,76.15405178070068,24,30,37,237,164,37,33,28,2
2337,76.16766905784607,25,30,39,243,156,36,39,26,2
2338,76.19145178794861,30,29,40,257,166,42,42,30,2
2339,76.21455073356628,32,31,37,251,143,35,42,31,2
2340,76.22820234298706,35,33,40,235,170,40,42,30,2
2341,76.25971984863281,35,34,39,212,174,43,40,29,2
2342,76.2741310596466,36,37,37,195,177,43,36,31,2
2343,76.28904867172241,37,36,37,193,187,37,32,25,2
2344,76.31083059310913,40,39,40,212,199,46,37,29,2
2345,76.33400535583496,39,39,40,213,175,44,34,28,2
2346,76.35678887367249,43,40,40,263,196,45,37,32,2
2347,76.3706476688385,43,39,38,279,197,45,38,33,2
2348,76.39386630058289,44,43,44,272,188,49,43,33,2
2349,76.41643524169922,39,38,47,272,186,43,40,31,2
2350,76.4400897026062,39,36,49,271,195,48,45,34,2
2351,76.45411849021912,35,35,48,204,155,42,43,31,2
2352,76.46808624267578,32,31,51,181,146,41,40,29,2
2353,76.49064111709595,24,25,48,200,154,38,39,29,2
2354,76.51409006118774,25,27,44,163,133,36,41,31,2
2355,76.53646397590637,25,27,39,158,128,28,34,30,2
2356,76.551198720932,25,27,39,204,147,28,37,30,2
2357,76.57488226890564,30,30,47,255,184,32,41,34,2
2358,76.58843874931335,35,36,46,240,197,39,45,34,2
2359,76.61165857315063,35,37,45,245,211,40,41,34,2
2360,76.64167976379395,36,44,51,245,204,41,43,31,2
2361,76.65637040138245,37,43,52,252,207,46,40,30,2
2362,76.67057943344116,34,43,46,230,195,50,39,32,2
2363,76.69420719146729,31,36,47,223,167,44,31,29,2
2364,76.724844455719,36,40,55,227,155,45,40,33,2
2365,76.73078775405884,35,33,59,271,165,47,42,34,2
2366,76.75396466255188,35,32,59,244,150,46,42,35,2
2367,76.7682695388794,36,33,58,228,131,41,41,32,2
2368,76.7912049293518,39,39,57,267,155,43,44,36,2
2369,76.8139967918396,35,37,51,260,155,38,39,31,2
2370,76.82785630226135,37,36,38,212,164,37,39,34,2
2371,76.8508288860321,38,37,35,209,168,33,38,32,2
2372,76.87463855743408,36,36,35,220,165,33,38,32,2
2373,76.88849568367004,35,31,34,170,141,31,41,30,2
2374,76.92669653892517,33,28,35,180,140,32,39,30,2
2375,76.93391180038452,31,31,36,185,129,35,35,28,2
2376,76.95675921440125,31,33,40,198,145,35,39,29,2
2377,76.97893357276917,34,35,51,198,152,40,44,32,2
2378,76.9942238330841,31,35,53,208,165,42,40,32,2
2379,77.01681017875671,31,36,52,208,179,42,40,31,2
2380,77.03080177307129,36,44,56,222,192,41,46,33,2
2381,77.05401706695557,38,43,55,277,211,47,46,34,2
2382,77.07639813423157,38,40,46,267,205,42,42,33,2
2383,77.09105825424194,39,44,46,262,216,49,48,34,2
2384,77.11423230171204,40,44,47,254,204,49,49,36,2
2385,77.13674998283386,33,34,41,244,184,45,43,33,2
2386,77.15068984031677,30,34,38,154,130,43,41,32,2
2387,77.17412090301514,28,36,32,146,135,44,38,30,2
2388,77.19683051109314,33,37,31,162,135,37,37,30,2
2389,77.21082544326782,32,38,28,171,136,40,35,28,2
2390,77.23386359214783,36,40,34,163,145,42,40,30,2
2391,77.25653910636902,37,42,41,178,161,46,42,29,2
2392,77.27081036567688,37,42,42,176,155,45,42,30,2
2393,77.29381251335144,32,36,41,186,153,44,37,26,2
2394,77.31675028800964,34,34,42,203,172,42,37,28,2
2395,77.33080649375916,33,33,45,238,195,43,39,28,2
2396,77.36094641685486,33,31,39,230,187,34,38,28,2
2397,77.37701940536499,31,29,40,231,198,35,38,27,2
2398,77.39080810546875,30,30,41,220,194,36,41,34,2
2399,77.41380333900452,28,29,43,229,179,35,42,32,2
2400,77.43714714050293,27,28,36,182,147,33,38,33,2
2401,77.4504623413086,26,26,41,196,168,39,40,34,2
2402,77.47476434707642,27,29,41,234,180,40,44,34,2
2403,77.49645614624023,27,29,40,242,169,37,47,30,2
2404,77.51070761680603,29,30,38,207,158,36,46,31,2
2405,77.5340347290039,28,29,36,219,165,34,44,26,2
2406,77.55655074119568,29,27,42,239,166,31,43,25,2
2407,77.57906675338745,30,31,43,217,158,32,42,28,2
2408,77.59428977966309,30,32,40,196,151,31,33,28,2
2409,77.6167562007904,30,32,42,214,175,37,35,27,2
2410,77.63098526000977,31,36,48,214,175,38,35,30,2
2411,77.65400576591492,31,40,44,212,160,36,35,30,2
2412,77.67640662193298,31,35,42,192,151,32,32,27,2
2413,77.69055724143982,30,34,46,198,157,37,34,27,2
2414,77.72099471092224,30,34,45,203,159,38,32,29,2
2415,77.73657989501953,31,31,45,204,162,38,31,27,2
2416,77.75083994865417,28,28,40,187,154,37,30,28,2
2417,77.77396154403687,29,30,39,204,154,39,32,30,2
2418,77.79652380943298,30,31,35,210,158,38,34,33,2
2419,77.81119966506958,29,30,38,206,186,41,36,31,2
2420,77.83409261703491,26,27,28,195,182,40,36,31,2
2421,77.85658407211304,27,31,30,199,184,41,37,29,2
2422,77.87065100669861,33,33,37,184,187,48,40,30,2
2423,77.89394640922546,31,33,41,179,191,48,37,29,2
2424,77.91713070869446,32,33,37,157,144,41,35,28,2
2425,77.93914270401001,31,33,40,208,169,44,34,29,2
2426,77.95490598678589,36,36,43,206,172,47,41,39,2
2427,77.9764986038208,33,35,40,204,163,40,37,40,2
2428,77.99922513961792,35,33,35,204,162,40,37,38,2
2429,78.01418423652649,35,34,38,237,174,43,41,40,2
2430,78.0374083518982,37,35,37,234,151,45,43,39,2
