,time,chanel1,chanel2,chanel3,chanel4,chanel5,chanel6,chanel7,chanel8,position
0,10.585695266723633,78,89,63,72,76,51,73,112,1
1,10.604659080505371,85,95,68,81,85,57,78,124,1
2,10.626773118972778,99,111,68,77,79,52,73,116,1
3,10.644699335098267,106,117,70,75,74,50,74,118,1
4,10.665400505065918,109,122,74,84,86,60,83,119,1
5,10.687386274337769,97,109,61,73,75,58,75,101,1
6,10.712114572525024,106,111,54,69,75,62,64,106,1
7,10.724879741668701,87,87,47,70,80,67,65,104,1
8,10.747682332992554,80,79,44,70,79,66,61,105,1
9,10.764480590820312,76,71,38,62,71,58,55,105,1
10,10.785202741622925,80,76,42,66,75,61,61,104,1
11,10.807163715362549,61,62,39,59,67,51,57,87,1
12,10.824426651000977,67,69,46,63,65,48,58,92,1
13,10.844719409942627,67,71,44,61,67,46,60,91,1
14,10.867658615112305,85,115,50,60,69,49,68,103,1
15,10.884671211242676,83,113,48,54,64,46,66,99,1
16,10.905187368392944,81,114,50,66,70,52,73,96,1
17,10.929215669631958,77,111,44,58,68,53,75,94,1
18,10.944279193878174,75,110,45,59,65,54,73,91,1
19,10.9648756980896,62,70,49,75,73,54,66,89,1
20,10.987600326538086,60,65,55,85,82,57,67,89,1
21,11.004128456115723,71,88,54,75,75,53,61,93,1
22,11.032360792160034,72,91,62,83,80,54,58,90,1
23,11.047377824783325,72,94,65,84,81,55,63,92,1
24,11.064596891403198,74,110,59,74,75,56,64,90,1
25,11.084418535232544,91,131,59,63,67,55,69,111,1
26,11.108356237411499,105,159,66,67,66,53,70,119,1
27,11.124310970306396,107,157,61,64,64,54,72,118,1
28,11.145467042922974,106,157,64,78,78,61,73,115,1
29,11.16731882095337,103,148,65,79,77,58,73,109,1
30,11.184598207473755,92,137,61,78,75,56,66,89,1
31,11.204952955245972,78,101,55,75,78,61,74,93,1
32,11.227376461029053,75,103,54,76,81,61,77,101,1
33,11.243974685668945,75,100,45,61,67,54,73,99,1
34,11.264809370040894,72,94,42,56,61,53,68,111,1
35,11.28730821609497,87,107,54,67,69,60,79,132,1
36,11.305202960968018,77,98,52,66,65,54,71,117,1
37,11.32443904876709,80,95,56,62,57,51,68,113,1
38,11.346906900405884,85,99,63,75,73,61,75,125,1
39,11.364787578582764,88,101,62,74,72,59,80,114,1
40,11.385325193405151,73,82,53,65,67,57,72,96,1
41,11.407219648361206,83,105,55,68,70,68,84,111,1
42,11.42410397529602,86,110,51,67,68,67,81,112,1
43,11.4446382522583,83,110,51,53,52,59,74,104,1
44,11.46776819229126,86,119,52,49,49,60,67,106,1
45,11.489781856536865,90,122,56,50,50,56,65,96,1
46,11.51283311843872,77,97,52,48,49,45,53,91,1
47,11.527677536010742,76,99,56,55,63,50,62,97,1
48,11.549756526947021,94,115,60,61,77,60,74,100,1
49,11.57228398323059,92,106,61,64,79,62,78,99,1
50,11.587280750274658,86,98,56,64,76,60,80,100,1
51,11.610178470611572,91,100,60,68,77,61,81,105,1
52,11.633291721343994,86,90,58,68,73,62,85,97,1
53,11.647289276123047,61,64,53,73,70,52,76,90,1
54,11.671076774597168,55,55,51,73,70,50,73,85,1
55,11.692697763442993,55,58,57,76,76,55,76,93,1
56,11.707483530044556,46,56,55,72,73,52,70,73,1
57,11.730076313018799,60,81,57,67,68,48,59,72,1
58,11.752363920211792,65,82,54,57,57,48,63,80,1
59,11.767256259918213,65,83,54,59,56,46,61,81,1
60,11.789904832839966,72,86,51,64,61,48,65,77,1
61,11.812217473983765,72,87,51,63,61,52,71,83,1
62,11.827163457870483,65,82,48,62,59,53,75,79,1
63,11.849703073501587,62,84,48,65,62,54,71,75,1
64,11.872286319732666,63,86,48,62,60,54,73,80,1
65,11.887171268463135,55,79,47,59,53,59,83,105,1
66,11.909780263900757,54,80,44,57,51,54,84,111,1
67,11.932389974594116,53,67,43,57,50,55,81,110,1
68,11.954844951629639,55,67,43,48,47,57,87,131,1
69,11.969765663146973,54,67,45,52,50,57,87,128,1
70,11.992393493652344,53,75,42,43,44,45,68,104,1
71,12.015066146850586,64,94,49,57,63,61,68,97,1
72,12.030216693878174,63,96,50,65,75,70,78,110,1
73,12.052682638168335,67,97,54,72,78,68,72,87,1
74,12.074424505233765,77,97,54,76,84,70,74,99,1
75,12.089988708496094,79,92,54,78,89,73,83,102,1
76,12.112231492996216,76,76,50,72,81,61,76,103,1
77,12.135409832000732,76,71,48,66,72,53,69,103,1
78,12.150136470794678,69,69,42,60,68,49,67,101,1
79,12.172530174255371,63,73,46,61,67,48,65,88,1
80,12.194808006286621,62,76,50,63,64,42,56,82,1
81,12.209638833999634,84,113,55,61,59,41,61,99,1
82,12.23257040977478,86,116,62,71,73,52,65,86,1
83,12.255112171173096,90,115,64,76,78,55,65,84,1
84,12.2702054977417,90,115,61,67,72,53,65,90,1
85,12.292283535003662,93,118,61,65,74,58,71,92,1
86,12.31500244140625,68,81,55,65,76,61,69,73,1
87,12.329912185668945,69,76,50,62,69,52,61,69,1
88,12.360764980316162,85,90,61,74,84,68,68,99,1
89,12.375782251358032,84,89,61,81,95,75,68,96,1
90,12.390203952789307,84,91,61,81,92,71,61,97,1
91,12.412155628204346,89,94,62,81,90,70,60,100,1
92,12.434813976287842,91,97,64,81,88,72,66,112,1
93,12.449817657470703,74,84,54,68,73,57,59,86,1
94,12.472489833831787,79,96,56,63,62,53,59,102,1
95,12.49478816986084,77,91,53,60,61,53,60,101,1
96,12.509747743606567,69,87,52,67,67,56,61,99,1
97,12.533221006393433,61,82,49,63,65,54,57,86,1
98,12.554808616638184,65,85,52,65,61,55,64,89,1
99,12.571287393569946,50,64,45,68,61,53,68,71,1
100,12.592408180236816,49,57,43,67,60,53,67,80,1
101,12.615093231201172,50,53,41,60,59,55,75,78,1
102,12.629717588424683,51,51,40,59,58,55,73,81,1
103,12.653382539749146,50,43,38,59,64,52,67,82,1
104,12.674471855163574,63,64,42,60,66,56,76,92,1
105,12.68999981880188,66,67,43,59,66,60,80,88,1
106,12.712823152542114,73,72,45,61,63,56,71,94,1
107,12.735095977783203,81,80,51,64,69,57,70,96,1
108,12.749980449676514,75,79,46,59,63,57,73,96,1
109,12.772706031799316,69,73,53,60,62,50,59,86,1
110,12.7949059009552,79,86,60,70,69,51,64,98,1
111,12.809622764587402,75,86,61,71,71,50,62,88,1
112,12.832319021224976,81,92,57,68,66,48,64,92,1
113,12.85486388206482,84,94,60,69,66,47,62,90,1
114,12.871745824813843,86,94,59,70,64,47,62,95,1
115,12.892279624938965,72,82,54,66,61,45,58,91,1
116,12.914430618286133,74,80,51,67,60,46,58,95,1
117,12.937708854675293,60,70,58,75,70,53,60,91,1
118,12.952368021011353,57,64,56,76,73,55,63,91,1
119,12.975506782531738,64,72,49,69,72,59,61,95,1
120,12.997588396072388,72,75,50,72,74,58,63,94,1
121,13.011987209320068,74,76,52,76,76,59,62,101,1
122,13.035097122192383,73,72,43,66,66,53,62,96,1
123,13.058340549468994,76,76,44,66,67,54,72,98,1
124,13.072266101837158,65,63,44,67,64,48,72,88,1
125,13.094914436340332,65,67,43,59,57,48,73,90,1
126,13.118204593658447,64,72,42,52,60,49,77,81,1
127,13.132330179214478,67,73,51,68,76,57,77,83,1
128,13.154803276062012,73,84,59,74,79,60,73,88,1
129,13.178868055343628,90,97,72,96,105,74,84,94,1
130,13.192583799362183,86,93,73,98,108,74,80,82,1
131,13.214842081069946,82,84,72,97,103,71,78,78,1
132,13.237882137298584,80,87,66,86,95,70,78,82,1
133,13.252150535583496,75,80,57,78,89,66,73,78,1
134,13.27474570274353,60,61,38,51,63,57,65,78,1
135,13.29836916923523,62,64,37,51,62,56,67,80,1
136,13.311940908432007,64,70,38,56,66,58,67,91,1
137,13.334526062011719,62,64,36,53,59,51,59,84,1
138,13.358357906341553,58,56,39,55,60,49,60,79,1
139,13.372313261032104,60,62,42,59,57,46,57,78,1
140,13.395013093948364,63,67,49,69,62,55,62,80,1
141,13.41723346710205,62,66,49,66,58,54,64,76,1
142,13.4324791431427,65,68,51,68,60,56,66,76,1
143,13.454451084136963,66,71,50,71,61,56,66,77,1
144,13.478512048721313,65,69,54,75,69,59,68,73,1
145,13.49254822731018,70,81,48,61,60,49,66,82,1
146,13.515454292297363,73,83,49,63,61,49,65,93,1
147,13.53795051574707,77,87,53,73,68,50,70,98,1
148,13.552385091781616,78,85,54,73,70,50,69,100,1
149,13.575014114379883,77,90,51,63,57,42,65,98,1
150,13.598299503326416,70,73,52,70,61,45,65,90,1
151,13.612891912460327,63,66,52,73,65,50,66,72,1
152,13.63480806350708,55,58,48,79,61,51,65,65,1
153,13.658093690872192,57,59,45,83,59,55,68,62,1
154,13.672416925430298,82,71,64,93,98,80,91,61,1
155,13.694810628890991,92,84,78,151,131,94,101,67,1
156,13.718308687210083,97,100,85,183,178,117,111,68,1
157,13.73175835609436,132,146,99,227,290,173,137,84,1
158,13.755870819091797,154,165,137,287,381,234,174,106,1
159,13.778163194656372,156,172,149,324,390,235,177,109,1
160,13.79286503791809,159,173,152,328,397,241,178,104,1
161,13.815475463867188,158,166,153,332,388,240,178,101,1
162,13.837377548217773,134,129,153,313,318,208,165,92,1
163,13.86050534248352,121,122,131,280,218,146,133,65,1
164,13.875296115875244,100,99,114,241,188,132,116,57,1
165,13.897773742675781,89,88,108,211,154,118,126,67,1
166,13.920759677886963,93,98,107,179,152,107,129,70,1
167,13.934684991836548,88,95,96,162,152,99,118,62,1
168,13.957168817520142,64,68,87,133,129,84,109,59,1
169,13.980466604232788,62,66,78,120,127,82,108,55,1
170,13.994854211807251,57,59,66,114,124,74,80,41,1
171,14.017635822296143,42,37,56,118,89,54,55,38,1
172,14.040877342224121,52,47,60,119,88,52,54,42,1
173,14.054733991622925,51,43,56,103,78,47,47,41,1
174,14.07727861404419,51,44,54,100,74,48,44,42,1
175,14.10051941871643,52,52,63,97,83,52,50,45,1
176,14.115299224853516,51,51,65,84,87,52,49,42,1
177,14.137195110321045,73,68,81,120,127,91,88,52,1
178,14.160634994506836,81,76,81,126,142,104,97,53,1
179,14.174967527389526,81,76,81,129,141,105,98,54,1
180,14.197452306747437,76,68,72,123,134,101,94,47,1
181,14.220988512039185,77,70,75,133,134,104,96,47,1
182,14.234479188919067,52,52,58,119,98,75,65,42,1
183,14.257379531860352,44,47,57,117,82,63,57,42,1
184,14.280560493469238,47,51,64,123,94,65,64,43,1
185,14.294658660888672,48,52,72,139,107,69,64,44,1
186,14.317283153533936,51,50,75,148,108,67,65,44,1
187,14.340728044509888,49,45,67,126,91,57,60,37,1
188,15.203161001205444,28,33,33,40,41,37,37,37,2
189,15.217430353164673,27,33,33,39,40,50,47,40,2
190,15.241149187088013,27,33,32,37,35,51,47,38,2
191,15.263495922088623,22,27,31,36,31,47,41,32,2
192,15.277307033538818,22,25,28,36,32,50,44,31,2
193,15.300731897354126,23,24,27,39,34,45,42,31,2
194,15.322946310043335,24,24,29,38,34,33,33,30,2
195,15.33730435371399,25,26,29,39,36,32,32,30,2
196,15.360852003097534,27,33,34,42,40,37,40,38,2
197,15.383160829544067,26,32,33,41,38,35,36,39,2
198,15.397621154785156,25,32,32,36,35,36,37,39,2
199,15.420598268508911,28,34,33,41,42,40,39,37,2
200,15.443074941635132,30,36,34,41,45,36,40,40,2
201,15.457393169403076,29,30,31,38,43,33,35,32,2
202,15.480438470840454,32,35,38,49,54,42,43,40,2
203,15.502797842025757,32,35,38,50,54,47,44,40,2
204,15.51772952079773,35,38,42,54,52,47,47,40,2
205,15.540712118148804,34,35,40,55,50,48,46,37,2
206,15.56313443183899,35,37,41,56,50,49,48,39,2
207,15.57725977897644,33,35,36,52,45,45,45,31,2
208,15.600583553314209,35,39,43,58,56,42,44,33,2
209,15.623052835464478,31,36,40,56,54,37,39,32,2
210,15.637609720230103,32,38,42,58,61,48,43,38,2
211,15.660078525543213,31,38,44,61,64,53,44,38,2
212,15.690945148468018,35,41,44,59,64,52,47,40,2
213,15.697597742080688,34,35,38,53,55,54,48,40,2
214,15.720407009124756,33,35,33,49,54,56,49,42,2
215,15.742612361907959,32,32,31,43,44,50,48,39,2
216,15.765937805175781,31,31,30,38,42,45,45,38,2
217,15.780406713485718,28,31,30,39,44,41,43,39,2
218,15.803110122680664,31,37,37,53,51,42,44,45,2
219,15.826014757156372,30,36,38,54,55,38,42,43,2
220,15.84048867225647,30,36,38,54,55,37,35,42,2
221,15.86307668685913,34,38,41,56,55,35,39,44,2
222,15.885602474212646,32,34,39,54,49,35,36,41,2
223,15.900503873825073,30,32,34,40,46,38,40,37,2
224,15.923173904418945,31,32,36,44,45,40,45,37,2
225,15.945436239242554,30,31,36,42,42,38,45,39,2
226,15.96035885810852,33,37,44,52,51,45,52,45,2
227,15.983510255813599,34,39,45,54,51,46,52,43,2
228,16.00550127029419,32,35,43,52,44,40,46,40,2
229,16.01988410949707,31,36,41,50,45,47,45,41,2
230,16.042422771453857,33,38,45,53,49,51,47,40,2
231,16.065935134887695,28,30,36,42,38,45,39,35,2
232,16.07969570159912,27,29,40,44,43,46,39,40,2
233,16.102962017059326,30,30,39,45,44,50,46,45,2
234,16.12557554244995,32,31,40,47,39,44,44,42,2
235,16.13983416557312,33,30,37,46,38,42,42,41,2
236,16.16320276260376,31,28,32,41,36,42,41,38,2
237,16.18543314933777,31,29,28,41,38,44,39,32,2
238,16.199177980422974,28,30,30,42,43,40,35,29,2
239,16.223719835281372,33,33,31,44,48,41,34,31,2
240,16.24522066116333,33,34,30,44,47,41,35,33,2
241,16.25966215133667,32,34,31,45,48,40,35,32,2
242,16.282597541809082,33,34,32,43,43,37,37,36,2
243,16.306180477142334,31,33,31,41,38,34,34,36,2
244,16.319736003875732,25,27,29,33,35,31,33,35,2
245,16.342907428741455,23,24,29,34,35,28,32,33,2
246,16.36555027961731,25,25,30,36,34,27,31,33,2
247,16.380094289779663,25,23,31,39,33,46,31,29,2
248,16.402921199798584,28,22,35,47,39,59,41,25,2
249,16.432855129241943,28,22,33,46,36,59,40,25,2
250,16.44015336036682,26,25,35,46,37,60,39,26,2
251,16.463563680648804,29,27,36,50,43,63,41,30,2
252,16.485555171966553,30,31,35,51,50,54,42,34,2
253,16.499914407730103,30,31,31,44,46,48,37,42,2
254,16.522985696792603,32,36,33,46,48,49,41,45,2
255,16.545751333236694,32,33,32,44,47,48,41,43,2
256,16.559342622756958,30,31,29,39,43,45,39,41,2
257,16.582388162612915,28,27,28,33,32,43,35,37,2
258,16.605618715286255,27,29,30,36,34,35,38,34,2
259,16.619818925857544,26,29,32,40,42,38,39,35,2
260,16.64295244216919,25,31,32,39,41,41,40,35,2
261,16.665714979171753,23,31,32,37,39,40,39,34,2
262,16.680391788482666,27,33,35,42,46,43,42,35,2
263,16.702986001968384,26,31,32,39,44,43,36,29,2
264,16.72550082206726,22,27,30,35,37,38,30,24,2
265,16.748229503631592,25,27,29,38,40,39,32,27,2
266,16.762998342514038,25,26,30,38,40,39,33,26,2
267,16.78586745262146,24,25,28,35,35,37,31,29,2
268,16.80804681777954,25,28,29,36,42,40,35,32,2
269,16.823115587234497,25,28,27,38,44,40,35,31,2
270,16.845881938934326,30,31,33,43,48,43,40,39,2
271,16.867976427078247,30,31,32,43,49,43,41,40,2
272,16.882656812667847,30,30,32,42,47,40,41,38,2
273,16.90582585334778,30,29,33,44,42,39,40,39,2
274,16.928231477737427,31,33,36,46,44,41,44,41,2
275,16.943010091781616,27,30,30,37,38,39,38,32,2
276,16.965673208236694,27,32,30,37,40,46,40,35,2
277,16.98796033859253,28,33,30,37,40,49,41,35,2
278,17.002902269363403,30,34,28,37,40,49,46,32,2
279,17.025591611862183,32,34,28,35,36,47,43,36,2
280,17.047975301742554,31,32,28,35,34,53,48,35,2
281,17.062501192092896,34,36,34,44,41,58,54,38,2
282,17.085509777069092,34,34,33,47,44,57,53,38,2
283,17.108012676239014,30,32,33,46,42,57,49,38,2
284,17.122343063354492,28,32,35,46,41,58,49,34,2
285,17.145439863204956,35,36,42,55,53,55,51,37,2
286,17.168267250061035,37,34,44,62,55,46,42,34,2
287,17.182286262512207,36,34,43,61,53,44,41,34,2
288,17.205724716186523,40,36,44,64,54,43,40,38,2
289,17.228293657302856,51,46,55,78,68,53,54,47,2
290,17.242310285568237,47,44,51,75,63,59,51,45,2
291,17.265342235565186,43,41,46,67,58,60,52,43,2
292,17.288355112075806,47,46,54,74,67,70,57,46,2
293,17.302325010299683,44,45,54,71,69,71,56,44,2
294,17.325706720352173,30,32,40,56,61,66,43,33,2
295,17.355488300323486,31,36,41,55,61,59,42,37,2
296,17.36224365234375,30,38,42,56,63,59,42,38,2
297,17.38575315475464,28,37,36,52,59,51,41,35,2
298,17.407686710357666,28,37,37,51,59,50,44,34,2
299,17.421924114227295,34,39,38,55,61,50,46,38,2
300,17.444901943206787,32,36,37,57,60,45,44,33,2
301,17.469887495040894,34,35,37,54,55,42,41,32,2
302,17.482452630996704,35,34,39,55,59,48,43,35,2
303,17.50605535507202,36,35,37,56,60,50,43,35,2
304,17.52807092666626,31,35,38,57,57,51,41,31,2
305,17.54228138923645,32,34,39,58,57,51,41,37,2
306,17.56554365158081,30,35,39,57,58,51,41,37,2
307,17.587990760803223,29,42,46,67,61,47,42,43,2
308,17.602392196655273,28,41,47,69,61,45,42,43,2
309,17.625402688980103,38,45,54,73,66,47,48,52,2
310,17.64798641204834,41,47,58,80,72,48,51,53,2
311,17.670432090759277,44,51,63,93,83,52,59,60,2
312,17.685569286346436,42,44,55,84,75,47,55,55,2
313,17.708818197250366,42,43,54,82,73,50,55,54,2
314,17.731117963790894,37,41,51,79,69,46,49,50,2
315,17.74553608894348,34,37,43,66,62,46,46,48,2
316,17.768165349960327,32,35,39,51,48,40,35,41,2
317,17.79120683670044,32,36,40,49,47,38,33,40,2
318,17.8043429851532,34,38,43,53,54,38,35,42,2
319,17.827571392059326,31,35,39,45,49,45,44,39,2
320,17.85062026977539,31,36,44,49,50,74,59,42,2
321,17.865546941757202,31,32,41,48,48,132,163,45,2
322,17.887891054153442,32,27,39,47,45,144,169,47,2
323,17.910560369491577,45,47,64,91,86,155,184,56,2
324,17.924542665481567,48,48,66,94,90,155,186,56,2
325,17.947972774505615,47,46,64,93,90,148,182,54,2
326,17.970602989196777,46,48,66,94,91,114,109,50,2
327,17.991795778274536,48,52,68,100,99,148,115,50,2
328,18.00903820991516,48,49,61,89,82,150,99,53,2
329,18.029964447021484,48,53,61,92,84,150,100,58,2
330,18.05189347267151,48,54,61,94,84,151,99,59,2
331,18.069108486175537,48,52,59,93,83,154,94,58,2
332,18.09001398086548,46,50,57,86,77,150,88,56,2
333,18.112210035324097,37,37,42,60,61,150,85,43,2
334,18.12912344932556,34,32,38,53,54,155,79,34,2
335,18.149890422821045,39,37,43,56,58,158,107,35,2
336,18.172194957733154,42,37,44,58,59,188,176,45,2
337,18.189162731170654,42,36,43,56,51,172,178,46,2
338,18.20966935157776,39,37,39,54,47,163,180,46,2
339,18.23233962059021,39,36,41,53,46,160,182,46,2
340,18.2490873336792,34,31,36,47,39,155,168,43,2
341,18.276978969573975,31,32,32,43,38,124,92,34,2
342,18.293158769607544,30,29,31,42,38,111,78,32,2
343,18.31008005142212,28,27,28,39,36,109,65,31,2
344,18.329619646072388,31,28,27,42,40,109,59,32,2
345,18.35268235206604,34,29,23,37,37,141,67,37,2
346,18.36953592300415,34,29,24,37,40,126,68,38,2
347,18.389883518218994,36,34,32,46,45,120,66,44,2
348,18.412081241607666,36,33,33,46,48,126,68,44,2
349,18.428935766220093,33,31,33,43,44,144,172,47,2
350,18.449899673461914,36,38,45,58,53,124,173,50,2
351,18.472267389297485,35,39,47,60,52,121,178,55,2
352,18.489707469940186,33,38,45,57,49,122,180,51,2
353,18.509730339050293,34,39,45,58,48,118,180,50,2
354,18.53237795829773,37,40,47,62,54,89,90,48,2
355,18.54923105239868,31,32,41,54,49,90,85,41,2
356,18.57133173942566,32,31,38,53,52,117,90,58,2
357,18.592285871505737,34,28,38,57,54,119,86,60,2
358,18.609160900115967,33,33,42,62,57,161,179,69,2
359,18.629603624343872,39,34,40,60,53,167,205,77,2
360,18.65342092514038,43,43,38,57,49,164,208,78,2
361,18.669182777404785,44,43,41,54,46,154,210,72,2
362,18.689730644226074,49,44,41,50,52,195,218,73,2
363,18.712188243865967,59,40,38,41,48,159,189,73,2
364,18.729586839675903,59,41,45,52,52,157,190,70,2
365,18.749993324279785,58,36,48,55,59,180,231,82,2
366,18.77322292327881,61,44,54,70,65,178,227,80,2
367,18.7889461517334,73,60,64,82,74,160,294,105,2
368,18.80967426300049,67,60,63,86,79,174,283,105,2
369,18.832340002059937,67,64,66,91,85,175,269,104,2
370,18.84896206855774,65,63,65,94,83,145,234,95,2
371,18.869849920272827,64,61,66,91,81,142,237,94,2
372,18.892462968826294,49,48,57,84,78,154,249,81,2
373,18.922419786453247,61,50,64,88,80,163,271,96,2
374,18.94475030899048,59,45,58,74,72,161,275,99,2
375,18.959922075271606,59,42,56,74,70,161,279,100,2
376,18.974853515625,61,39,53,72,67,167,275,104,2
377,18.997759342193604,63,35,51,69,55,152,192,98,2
378,19.012343168258667,60,33,48,92,53,127,149,87,2
379,19.029385566711426,57,29,54,123,59,126,134,82,2
380,19.04979372024536,61,41,68,152,86,128,119,82,2
381,19.072168827056885,56,43,71,163,93,112,113,73,2
382,19.090311765670776,64,48,91,264,126,65,87,63,2
383,19.10965657234192,68,50,132,371,179,57,60,51,2
384,19.132198810577393,72,51,139,392,189,50,52,47,2
385,19.14968228340149,69,44,135,387,180,40,51,43,2
386,19.169840574264526,69,41,132,383,177,36,55,53,2
387,19.192241430282593,57,37,137,368,175,33,50,60,2
388,19.209606885910034,51,35,100,272,137,36,48,61,2
389,19.229683876037598,51,50,95,236,133,50,57,70,2
390,19.25227189064026,57,50,102,238,141,52,58,70,2
391,19.269412994384766,63,50,103,251,154,55,57,76,2
392,19.28985047340393,65,51,85,210,146,58,59,70,2
393,19.3121976852417,66,57,95,213,141,58,64,72,2
394,19.329115390777588,65,52,88,211,128,49,69,83,2
395,19.350087881088257,73,64,80,202,117,47,77,93,2
396,19.754597663879395,102,137,60,68,52,44,73,122,1
397,19.770113706588745,104,140,63,69,54,43,69,128,1
398,19.79234790802002,109,145,56,59,45,41,58,144,1
399,19.815412759780884,96,116,52,60,49,44,61,139,1
400,19.829903602600098,94,114,48,61,49,48,65,140,1
401,19.852309226989746,100,128,56,58,49,45,67,150,1
402,19.87480616569519,98,125,56,59,52,47,68,141,1
403,19.88970947265625,84,114,56,58,54,45,68,116,1
404,19.911734342575073,92,131,65,68,63,48,79,145,1
405,19.934962511062622,94,136,73,74,69,47,75,143,1
406,19.95007634162903,84,121,69,79,70,45,69,124,1
407,19.972163677215576,81,111,67,80,67,44,66,122,1
408,19.99498152732849,85,116,66,82,66,43,66,121,1
409,20.00984263420105,77,96,63,80,56,35,48,79,1
410,20.03388237953186,74,81,61,88,49,39,56,78,1
411,20.05439782142639,66,81,60,82,47,40,58,73,1
412,20.069340229034424,73,81,61,83,52,42,61,92,1
413,20.092151641845703,77,78,61,85,55,45,63,117,1
414,20.114816904067993,80,81,57,82,55,46,65,118,1
415,20.129793882369995,92,93,55,70,55,48,69,135,1
416,20.152212619781494,94,104,58,72,58,45,66,131,1
417,20.174749612808228,87,102,53,65,52,44,62,120,1
418,20.18982696533203,78,110,59,70,50,40,60,109,1
419,20.212244033813477,76,111,65,81,64,52,71,111,1
420,20.236748695373535,72,119,63,79,62,45,60,99,1
421,20.249999284744263,66,112,61,77,58,46,61,102,1
422,20.272210359573364,77,118,73,98,83,56,73,104,1
423,20.294793844223022,82,113,71,99,90,61,80,93,1
424,20.31011199951172,82,109,61,97,78,51,69,91,1
425,20.332749605178833,74,87,60,99,80,51,72,81,1
426,20.354793548583984,74,79,57,100,80,51,75,75,1
427,20.369879961013794,64,68,47,101,63,49,69,71,1
428,20.392720937728882,64,59,43,98,52,42,62,64,1
429,20.414989233016968,67,65,46,87,55,44,66,62,1
430,20.429752588272095,69,83,58,90,57,43,63,56,1
431,20.452647924423218,65,83,57,88,59,41,57,54,1
432,20.474873542785645,64,80,52,77,50,30,49,49,1
433,20.497522830963135,58,75,55,80,54,34,44,45,1
434,20.511753797531128,52,84,55,85,48,30,37,47,1
435,20.5347158908844,49,73,44,83,44,31,33,56,1
436,20.55720353126526,50,76,44,85,41,32,34,57,1
437,20.572328805923462,85,141,60,80,53,47,54,87,1
438,20.59505009651184,89,149,59,74,51,44,53,88,1
439,20.617531776428223,93,148,59,71,52,44,53,95,1
440,20.632445096969604,102,161,62,74,67,57,74,115,1
441,20.656420469284058,102,161,65,92,72,58,77,115,1
442,20.677228212356567,78,113,52,87,63,47,63,96,1
443,20.692234754562378,72,101,54,92,69,53,72,99,1
444,20.71488094329834,69,98,61,107,73,58,78,93,1
445,20.73750901222229,54,70,55,105,60,48,62,63,1
446,20.75221085548401,55,69,57,95,60,47,60,64,1
447,20.77493667602539,67,71,66,99,70,55,70,88,1
448,20.797346591949463,70,80,66,100,64,52,64,90,1
449,20.812621593475342,68,71,59,80,61,48,61,89,1
450,20.834859609603882,68,72,65,99,77,54,61,90,1
451,20.857393503189087,73,84,66,98,74,55,61,98,1
452,20.872291326522827,60,79,57,93,63,47,49,77,1
453,20.894641637802124,54,69,54,100,65,43,45,73,1
454,20.916994333267212,58,74,62,115,72,49,47,75,1
455,20.932212114334106,58,77,57,97,57,41,41,73,1
456,20.95422625541687,52,61,57,107,63,43,45,62,1
457,20.97745656967163,54,64,66,119,73,48,52,63,1
458,20.992579460144043,60,68,68,110,75,52,54,63,1
459,21.01443099975586,53,61,59,99,68,44,49,53,1
460,21.036659717559814,53,57,62,102,69,44,58,73,1
461,21.05223250389099,53,60,62,92,63,44,58,74,1
462,21.07471513748169,51,55,54,90,54,38,52,71,1
463,21.097227811813354,52,73,56,91,51,37,52,74,1
464,21.11268925666809,53,74,55,84,49,38,51,79,1
465,21.135181665420532,50,71,56,88,50,40,43,62,1
466,21.157485485076904,56,75,56,102,52,40,46,59,1
467,21.17231321334839,54,73,59,140,55,42,48,59,1
468,21.19502067565918,48,48,56,142,53,39,44,52,1
469,21.217403650283813,52,46,65,163,63,46,48,49,1
470,21.23239755630493,57,50,66,164,63,49,49,46,1
471,21.2563738822937,56,39,62,156,64,49,47,48,1
472,21.276822328567505,68,57,63,116,62,51,54,60,1
473,21.292043209075928,70,62,62,115,62,53,57,59,1
474,21.31464409828186,64,60,57,125,56,47,53,57,1
475,21.33729338645935,67,63,59,127,52,42,54,64,1
476,21.352232456207275,74,78,73,138,56,42,55,76,1
477,21.374937772750854,64,70,68,133,52,35,46,65,1
478,21.397508144378662,63,66,66,136,50,33,43,66,1
479,21.412216186523438,69,68,71,105,47,36,47,69,1
480,21.43551206588745,63,63,64,100,51,35,43,61,1
481,21.45767903327942,50,50,53,89,47,33,41,47,1
482,21.479703426361084,52,45,55,91,48,34,43,55,1
483,21.494421243667603,53,46,56,100,57,38,45,53,1
484,21.51730251312256,60,62,61,113,70,38,47,58,1
485,21.539668560028076,65,68,66,113,71,42,52,65,1
486,21.554914951324463,67,69,63,110,73,41,54,65,1
487,21.57741141319275,71,72,74,131,85,50,66,67,1
488,21.59920859336853,74,75,76,127,83,53,69,70,1
489,21.61485719680786,64,68,73,128,88,58,71,63,1
490,21.63700795173645,59,60,72,126,88,56,68,70,1
491,21.659809827804565,55,55,87,153,94,57,64,68,1
492,21.67476534843445,57,53,75,140,97,55,59,63,1
493,21.69776153564453,50,48,72,137,93,49,54,62,1
494,21.719696760177612,56,53,85,136,86,44,52,66,1
495,21.73485279083252,54,59,95,150,88,43,51,59,1
496,21.75728988647461,56,61,84,128,81,43,53,57,1
497,21.78107762336731,52,62,97,200,75,39,46,56,1
498,21.794692993164062,52,62,101,207,76,40,48,55,1
499,21.817484140396118,45,51,87,210,71,39,45,47,1
500,21.839815855026245,43,48,80,209,77,45,47,48,1
501,21.855146169662476,45,49,82,212,81,46,48,52,1
502,21.87743043899536,40,43,69,152,73,44,46,51,1
503,21.900055646896362,47,52,68,143,75,46,47,51,1
504,21.91425848007202,47,52,67,148,72,44,45,47,1
505,21.937191486358643,48,51,61,140,60,38,45,42,1
506,21.95970845222473,42,49,57,131,54,37,44,39,1
507,21.97466254234314,46,48,55,127,55,37,42,38,1
508,21.99720525741577,40,39,54,170,54,35,37,37,1
509,22.019842863082886,41,45,74,181,70,39,42,52,1
510,22.034857988357544,38,43,72,180,66,39,38,48,1
511,22.057235956192017,41,45,72,203,70,38,41,51,1
512,22.080088138580322,36,45,75,201,77,39,41,51,1
513,22.094793796539307,38,46,72,169,79,39,43,51,1
514,22.11782479286194,36,40,49,143,67,37,40,36,1
515,22.139747381210327,47,56,53,146,75,38,43,43,1
516,22.154939889907837,52,59,51,125,78,41,43,44,1
517,22.177518129348755,55,62,49,138,74,42,45,46,1
518,22.199820280075073,58,67,59,151,75,47,48,51,1
519,22.214877367019653,63,71,64,148,81,51,50,56,1
520,22.237328052520752,64,62,69,152,85,58,59,56,1
521,22.259827136993408,61,57,67,139,80,57,58,50,1
522,22.274840593338013,59,54,67,132,80,57,56,49,1
523,22.29880976676941,56,46,65,137,79,55,54,47,1
524,22.319823026657104,59,41,65,139,78,52,52,42,1
525,22.33530020713806,50,36,58,125,69,44,41,38,1
526,22.356799125671387,48,39,64,140,71,44,42,42,1
527,22.379315614700317,48,44,78,155,78,46,44,46,1
528,22.402262926101685,46,43,73,135,74,45,44,43,1
529,22.417377948760986,39,40,67,149,67,43,43,42,1
530,22.439813137054443,39,42,70,153,67,44,45,43,1
531,22.46229314804077,38,40,71,164,64,41,45,47,1
532,22.477097988128662,36,32,57,172,49,34,42,41,1
533,22.499897480010986,38,33,61,172,51,33,42,42,1
534,22.522291660308838,32,37,75,170,60,36,43,48,1
535,22.53736925125122,32,36,76,167,62,36,42,48,1
536,22.559690475463867,32,35,71,149,60,36,39,40,1
537,22.582390785217285,31,35,70,127,57,37,39,42,1
538,22.597238540649414,32,37,71,125,55,35,37,42,1
539,22.619827270507812,32,34,57,103,49,39,42,37,1
540,22.64250922203064,36,39,59,125,59,40,44,39,1
541,22.657482862472534,38,39,58,123,58,37,42,40,1
542,22.67945408821106,43,44,55,121,59,39,46,41,1
543,22.701802015304565,39,42,52,126,64,39,46,37,1
544,22.717504024505615,41,40,59,164,69,34,38,40,1
545,22.739729166030884,42,38,60,152,60,37,39,39,1
546,22.762383937835693,46,35,60,149,62,39,40,39,1
547,22.777231216430664,47,36,68,155,60,37,39,43,1
548,22.799900770187378,50,42,81,173,63,46,51,51,1
549,22.822267293930054,48,49,82,146,58,48,56,54,1
550,22.8372163772583,51,47,76,188,61,47,55,52,1
551,22.859991312026978,52,51,80,189,60,49,59,55,1
552,22.882929801940918,50,48,75,185,62,48,58,53,1
553,22.905385494232178,49,44,62,161,57,40,49,47,1
554,22.91983962059021,61,55,74,164,85,55,64,56,1
555,22.942403316497803,61,57,80,110,88,56,65,56,1
556,22.95719814300537,56,54,76,119,88,54,62,53,1
557,22.979846715927124,61,58,82,128,92,60,66,57,1
558,23.00236964225769,61,57,84,130,94,62,69,57,1
559,23.017262935638428,52,44,67,124,69,47,53,44,1
560,23.03970217704773,69,62,79,138,85,61,64,57,1
561,23.062913417816162,72,67,87,155,94,64,68,64,1
562,23.07718300819397,67,64,84,146,89,59,64,60,1
563,23.099663257598877,67,65,84,155,86,59,62,61,1
564,23.12275767326355,66,65,90,152,86,61,62,63,1
565,23.137362241744995,46,48,73,140,62,43,46,49,1
566,23.159862756729126,37,40,62,122,47,36,35,40,1
567,23.18221950531006,56,63,86,170,78,52,47,55,1
568,23.19731092453003,59,64,85,171,81,53,46,54,1
569,23.219744443893433,59,61,79,181,78,51,45,50,1
570,23.242246389389038,58,63,89,202,87,54,48,58,1
571,23.257107973098755,59,65,100,205,91,57,50,60,1
572,23.279929399490356,49,45,76,165,69,43,42,48,1
573,23.302797079086304,53,41,76,183,68,43,46,46,1
574,23.317504405975342,52,40,82,186,69,43,46,47,1
575,23.339194774627686,51,39,81,167,56,39,42,40,1
576,23.3623628616333,60,46,69,164,60,43,49,43,1
577,23.38532257080078,61,45,74,172,63,45,50,44,1
578,23.40045928955078,60,46,71,153,60,44,48,44,1
579,23.42232084274292,62,49,65,140,68,47,52,44,1
580,23.445406436920166,68,48,58,157,73,55,64,45,1
581,23.459717750549316,64,43,56,164,64,52,61,41,1
582,23.48266911506653,57,40,51,150,57,49,60,40,1
583,23.505495309829712,53,39,52,158,60,47,59,42,1
584,23.520459175109863,51,40,48,179,52,45,57,41,1
585,23.542388200759888,43,36,44,154,48,33,44,37,1
586,23.565484523773193,43,34,51,145,54,34,45,38,1
587,23.579657077789307,46,34,51,156,57,33,43,37,1
588,23.60232424736023,45,34,48,141,55,33,43,36,1
589,23.625474214553833,42,31,53,119,54,32,41,36,1
590,23.6396906375885,48,37,81,163,63,39,41,44,1
591,23.66243839263916,58,38,85,167,68,43,39,42,1
592,23.685732126235962,58,38,87,167,73,45,38,41,1
593,23.69972801208496,58,39,89,179,78,46,37,44,1
594,23.72236132621765,62,41,88,177,82,50,42,43,1
595,23.7456533908844,75,52,69,165,86,61,63,38,1
596,23.759849548339844,71,57,61,174,86,62,70,46,1
597,23.782928705215454,73,57,58,165,82,65,72,50,1
598,23.80544114112854,76,58,62,157,82,66,73,49,1
599,23.819844722747803,74,58,62,154,81,65,73,54,1
600,23.8425030708313,57,48,60,132,86,58,60,54,1
601,23.866703033447266,52,40,53,108,80,51,49,44,1
602,23.879891872406006,54,47,58,109,79,49,50,44,1
603,23.9023916721344,55,51,57,132,80,49,55,45,1
604,23.925420999526978,57,49,60,136,77,47,50,42,1
605,23.939790964126587,57,50,60,127,61,38,45,40,1
606,23.962342977523804,56,52,62,129,59,41,46,40,1
607,23.986345291137695,49,43,55,138,58,40,44,36,1
608,24.000105142593384,43,37,51,115,50,37,39,33,1
609,24.022321939468384,42,41,52,119,53,41,45,36,1
610,24.044891595840454,41,37,55,130,49,42,48,45,1
611,24.059683561325073,41,34,54,126,53,41,47,46,1
612,24.082343578338623,43,41,67,132,65,44,47,52,1
613,24.105501413345337,48,47,73,131,68,43,44,56,1
614,24.119897842407227,45,43,75,135,69,40,37,54,1
615,24.142465829849243,45,41,76,133,67,37,33,50,1
616,24.165439128875732,48,46,77,138,68,39,36,47,1
617,24.179943799972534,49,43,69,148,77,43,41,42,1
618,24.20231819152832,46,37,61,146,81,44,44,37,1
619,24.225425481796265,49,43,51,147,84,46,49,36,1
620,24.2397780418396,57,46,50,146,88,48,52,36,1
621,24.26224398612976,59,45,48,149,89,51,53,37,1
622,24.285728454589844,57,44,42,135,77,45,48,38,1
623,24.30804467201233,57,45,48,150,75,45,49,42,1
624,24.322357177734375,56,45,51,141,69,43,44,44,1
625,24.345447301864624,54,43,45,139,68,43,46,39,1
626,24.36837124824524,49,42,50,139,66,39,45,46,1
627,24.38221549987793,49,40,49,130,60,34,44,45,1
628,24.40541696548462,54,45,51,114,76,41,47,44,1
629,24.428210496902466,58,43,59,133,89,44,51,42,1
630,24.44231367111206,57,44,60,139,88,44,49,43,1
631,24.465715885162354,59,43,57,135,88,44,48,37,1
632,24.487926721572876,63,47,63,171,97,48,53,40,1
633,24.503029584884644,57,42,58,181,88,46,54,38,1
634,24.52549695968628,52,40,48,186,80,43,51,37,1
635,24.548125982284546,50,40,61,208,86,43,51,41,1
636,24.562232971191406,57,42,68,220,89,44,52,42,1
637,24.585972785949707,54,38,69,204,84,41,47,40,1
638,24.608060359954834,56,40,75,192,81,45,53,47,1
639,24.62221670150757,59,39,78,178,77,47,53,49,1
640,24.64537787437439,54,37,68,149,73,47,50,45,1
641,24.6682550907135,47,35,73,141,83,56,56,51,1
642,24.682536125183105,57,40,70,154,82,60,59,48,1
643,24.705477237701416,54,41,68,162,83,56,48,44,1
644,24.728101015090942,50,40,64,157,83,55,47,41,1
645,24.742464542388916,50,39,66,150,78,54,50,42,1
646,24.765637159347534,48,42,62,149,61,42,40,38,1
647,24.78803300857544,39,40,68,150,72,47,38,48,1
648,24.802408933639526,41,37,66,147,66,47,39,49,1
649,24.82545256614685,43,37,72,172,76,49,39,54,1
650,24.84809899330139,61,70,78,176,132,80,50,56,1
651,24.862282514572144,85,95,78,179,163,96,70,61,1
652,24.885415077209473,85,97,73,164,161,93,72,54,1
653,24.90790295600891,107,130,89,237,209,114,88,66,1
654,24.92237424850464,119,151,116,241,234,124,96,68,1
655,24.945039987564087,121,155,129,284,258,141,106,71,1
656,24.967416048049927,136,190,160,284,339,180,138,75,1
657,24.98222017288208,144,199,166,327,355,190,146,80,1
658,25.005486965179443,135,187,166,342,345,183,140,80,1
659,25.035517930984497,132,174,153,331,338,183,140,81,1
660,25.042295694351196,127,166,144,300,305,165,133,87,1
661,25.065943479537964,96,106,107,300,198,112,88,84,1
662,25.08878993988037,83,90,109,280,188,105,83,81,1
663,25.102320671081543,70,73,101,216,160,98,78,68,1
664,25.126490116119385,62,69,89,235,141,92,78,62,1
665,25.14728832244873,62,63,79,229,140,93,82,55,1
666,25.184972047805786,63,61,77,221,131,89,83,45,1
667,25.1998929977417,60,57,65,178,97,74,70,48,1
668,25.208709716796875,62,61,68,179,117,74,73,57,1
669,25.222360849380493,73,62,91,188,138,78,73,70,1
670,25.245576858520508,75,57,97,228,146,65,62,67,1
671,25.267913579940796,72,56,97,235,149,66,60,69,1
672,25.290485382080078,73,56,94,251,146,65,59,66,1
673,25.304994106292725,74,59,91,255,152,72,59,60,1
674,25.328062057495117,67,56,68,227,133,62,52,55,1
675,25.349868774414062,60,54,68,225,128,59,48,50,1
676,25.379737854003906,58,55,68,223,123,56,49,49,1
677,25.398869514465332,62,62,73,207,125,63,54,49,1
678,25.41718888282776,55,54,86,209,126,56,49,50,1
679,25.43221426010132,58,60,90,212,131,55,45,42,1
680,26.144182682037354,33,36,78,188,64,27,36,38,2
681,26.168424129486084,35,33,63,160,49,26,36,37,2
682,26.190475702285767,35,33,56,122,44,28,35,36,2
683,26.212921380996704,34,32,54,101,45,32,36,38,2
684,26.22792410850525,42,39,63,108,53,43,45,47,2
685,26.250452518463135,42,39,64,115,58,41,45,45,2
686,26.272509574890137,42,43,74,123,61,41,46,48,2
687,26.28748393058777,41,43,79,127,55,42,46,47,2
688,26.310781002044678,43,43,81,131,58,40,44,44,2
689,26.333163261413574,33,35,74,125,49,28,32,31,2
690,26.347938060760498,30,32,71,120,43,28,30,30,2
691,26.371960401535034,29,29,62,109,44,31,27,25,2
692,26.392863988876343,29,28,50,91,43,29,31,24,2
693,26.40901780128479,25,30,56,96,41,28,31,28,2
694,26.430599689483643,26,30,57,95,43,26,32,30,2
695,26.45289969444275,24,28,63,102,44,28,30,31,2
696,26.468252420425415,23,26,65,100,38,26,29,30,2
697,26.490558385849,32,31,68,111,58,33,34,34,2
698,26.512902975082397,32,31,65,100,55,34,32,33,2
699,26.528061866760254,33,34,65,99,56,36,34,33,2
700,26.550710439682007,36,38,62,94,58,40,39,35,2
701,26.573412656784058,37,38,62,89,58,40,39,34,2
702,26.587214469909668,31,33,52,72,43,35,33,29,2
703,26.61048936843872,38,40,54,83,49,36,38,31,2
704,26.63278102874756,37,38,52,85,48,35,37,30,2
705,26.647193670272827,36,35,49,80,44,28,32,27,2
706,26.670434713363647,33,35,46,81,43,28,32,28,2
707,26.693341493606567,35,39,48,76,44,31,35,34,2
708,26.707305192947388,29,32,40,65,44,34,35,36,2
709,26.730586051940918,28,34,49,90,47,32,35,36,2
710,26.75378441810608,27,33,51,110,52,34,36,36,2
711,26.766663789749146,32,32,52,113,57,34,40,40,2
712,26.790388345718384,28,29,49,110,52,31,35,36,2
713,26.813007354736328,31,30,51,112,51,28,34,35,2
714,26.82730793952942,34,27,44,92,47,29,34,34,2
715,26.85049819946289,41,37,58,80,50,38,43,39,2
716,26.880484580993652,37,39,57,75,47,37,40,35,2
717,26.887145280838013,38,39,60,96,51,38,42,34,2
718,26.91050148010254,34,39,61,102,49,36,40,31,2
719,26.933265447616577,35,43,67,113,53,38,41,33,2
720,26.947362422943115,31,38,58,107,47,30,33,30,2
721,26.970486402511597,33,36,57,106,45,30,34,33,2
722,26.99399757385254,34,37,52,85,42,29,31,34,2
723,27.007559061050415,35,34,45,69,38,28,30,32,2
724,27.0305233001709,35,31,37,45,32,27,30,34,2
725,27.053277015686035,38,32,41,55,32,28,29,31,2
726,27.06903576850891,36,31,40,53,30,26,28,27,2
727,27.09040117263794,34,33,43,57,32,27,30,29,2
728,27.112855911254883,32,33,44,57,31,26,27,27,2
729,27.127213954925537,31,33,45,66,38,26,31,26,2
730,27.150485038757324,22,26,36,57,37,23,27,25,2
731,27.172996759414673,24,26,46,65,37,26,29,28,2
732,27.195489645004272,25,25,48,67,35,25,27,28,2
733,27.210463047027588,36,34,55,74,41,31,36,33,2
734,27.232884407043457,37,35,55,71,38,32,35,33,2
735,27.25713586807251,38,35,54,67,39,31,35,33,2
736,27.27056121826172,38,35,48,64,41,33,34,34,2
737,27.292906045913696,37,36,54,76,42,32,35,33,2
738,27.315564155578613,27,29,49,73,34,27,26,31,2
739,27.330749988555908,27,29,46,71,37,27,22,28,2
740,27.3529634475708,25,29,46,71,39,28,25,29,2
741,27.37555694580078,27,29,45,66,36,26,29,29,2
742,27.39044213294983,30,27,31,45,34,28,38,30,2
743,27.412879705429077,36,30,38,57,45,34,42,35,2
744,27.435566663742065,34,29,39,61,44,35,47,35,2
745,27.450510501861572,36,30,40,62,43,40,49,37,2
746,27.473044395446777,33,31,40,67,45,41,47,35,2
747,27.495439767837524,30,31,40,67,46,41,41,32,2
748,27.50980257987976,30,31,37,57,41,41,42,31,2
749,27.534602165222168,28,29,42,53,36,38,37,30,2
750,27.555678844451904,27,29,41,52,35,32,31,28,2
751,27.569690942764282,30,32,46,60,35,31,36,29,2
752,27.592970371246338,31,32,50,82,35,29,35,28,2
753,27.61576509475708,24,28,49,85,28,22,29,23,2
754,27.62963366508484,28,32,46,82,32,24,28,28,2
755,27.653107404708862,27,33,48,86,35,29,30,28,2
756,27.675482034683228,24,30,43,78,36,29,25,32,2
757,27.6901752948761,22,31,36,54,37,29,26,32,2
758,27.713189601898193,27,30,38,54,39,32,25,33,2
759,27.735861778259277,26,30,40,60,38,35,28,32,2
760,27.749754428863525,28,31,38,56,36,33,27,32,2
761,27.773200035095215,30,30,39,55,33,31,27,29,2
762,27.79561448097229,30,28,39,54,32,32,29,31,2
763,27.809972763061523,31,31,37,47,29,61,36,32,2
764,27.83301544189453,35,33,36,47,29,84,43,32,2
765,27.855881452560425,38,36,39,49,31,89,50,32,2
766,27.86979103088379,43,43,43,54,37,92,54,35,2
767,27.892913341522217,47,46,46,58,39,94,60,36,2
768,27.91545605659485,46,44,43,56,41,120,70,42,2
769,27.929746627807617,43,39,40,51,41,111,70,42,2
770,27.9535129070282,43,40,45,61,46,114,72,43,2
771,27.975420236587524,39,34,41,59,47,114,73,44,2
772,27.99015712738037,34,30,39,57,46,113,68,44,2
773,28.01258111000061,33,32,43,78,52,68,53,42,2
774,28.035433292388916,34,37,51,88,56,99,77,42,2
775,28.057188272476196,30,32,44,84,53,95,73,42,2
776,28.073936462402344,31,34,46,86,50,93,71,41,2
777,28.09475588798523,32,35,46,84,50,125,96,43,2
778,28.11740255355835,35,38,46,74,51,135,106,42,2
779,28.134599447250366,34,35,38,60,47,109,88,42,2
780,28.154646158218384,34,36,36,57,44,107,86,40,2
781,28.177372932434082,43,40,43,67,53,109,90,43,2
782,28.195066690444946,45,41,46,71,56,135,101,49,2
783,28.214728832244873,43,37,42,63,48,131,96,48,2
784,28.23678731918335,47,42,51,74,53,133,97,48,2
785,28.25435495376587,53,47,55,77,57,138,102,48,2
786,28.274982213974,45,42,47,65,48,138,99,43,2
787,28.29733943939209,43,40,44,64,41,73,61,32,2
788,28.314233779907227,46,45,48,64,43,75,53,29,2
789,28.33479642868042,52,49,49,66,45,103,60,41,2
790,28.357142210006714,45,46,46,64,44,102,51,41,2
791,28.37424612045288,46,47,48,65,44,102,52,43,2
792,28.394689321517944,48,47,49,64,48,108,56,46,2
793,28.417340993881226,45,42,44,61,47,145,76,48,2
794,28.43462085723877,34,32,34,46,40,127,76,41,2
795,28.45482635498047,36,35,37,46,37,124,80,40,2
796,28.4773371219635,34,34,37,46,39,124,80,40,2
797,28.493960857391357,32,33,35,42,36,146,85,35,2
798,28.516597270965576,33,32,35,48,40,106,72,38,2
799,28.537076473236084,41,34,39,57,41,104,65,38,2
800,28.55322575569153,40,32,36,59,43,103,61,38,2
801,28.574734687805176,40,31,33,57,39,104,60,37,2
802,28.597218990325928,40,31,32,58,38,92,57,38,2
803,28.614004135131836,48,49,50,81,53,100,67,39,2
804,28.644962787628174,43,48,49,75,50,103,68,42,2
805,28.657123565673828,41,46,48,71,49,103,67,40,2
806,28.674049139022827,47,53,53,72,53,103,68,41,2
807,28.696835041046143,50,55,57,79,57,81,61,41,2
808,28.71829342842102,42,44,45,52,41,61,43,35,2
809,28.734155416488647,40,42,49,59,41,51,37,29,2
810,28.754714965820312,41,43,53,71,41,48,39,29,2
811,28.777200937271118,35,34,49,70,36,39,36,28,2
812,28.794799327850342,33,33,46,61,30,30,34,28,2
813,28.814663648605347,32,30,49,68,32,28,34,29,2
814,28.837278842926025,33,34,45,69,36,29,37,31,2
815,28.85307741165161,42,44,53,70,44,34,41,34,2
816,28.8748619556427,43,46,54,71,45,39,42,37,2
817,28.897232055664062,47,48,59,79,50,51,51,43,2
818,28.91423225402832,46,47,54,73,47,52,49,43,2
819,28.93485951423645,46,46,51,67,46,54,50,41,2
820,28.957079887390137,36,36,40,57,42,56,47,38,2
821,28.97428035736084,34,32,37,53,41,55,48,36,2
822,28.994641065597534,33,34,40,59,39,51,45,32,2
823,29.017378330230713,36,39,49,68,49,55,49,35,2
824,29.036823987960815,34,37,53,72,54,65,52,36,2
825,29.054891109466553,33,39,52,69,52,68,54,39,2
826,29.077211141586304,36,41,53,71,53,106,63,40,2
827,29.099773645401,35,42,52,69,58,111,69,44,2
828,29.115273237228394,33,41,48,63,54,112,68,42,2
829,29.137356281280518,35,43,45,60,48,110,64,41,2
830,29.15967869758606,34,41,44,59,48,110,63,38,2
831,29.175142288208008,32,41,44,59,50,75,53,36,2
832,29.197158575057983,28,34,37,45,39,64,42,34,2
833,29.21982216835022,27,29,32,39,34,58,38,34,2
834,29.23482370376587,24,23,27,34,31,54,41,34,2
835,29.256792306900024,26,23,27,35,28,45,38,38,2
836,29.279630184173584,28,23,31,41,28,42,38,39,2
837,29.296436548233032,28,25,30,44,33,39,37,34,2
838,29.31760001182556,27,23,31,44,32,37,36,33,2
839,29.340038061141968,30,28,35,48,34,35,36,33,2
840,29.354668855667114,35,36,45,57,41,35,39,36,2
841,29.377359628677368,34,36,41,51,36,33,37,35,2
842,29.39964723587036,33,34,40,48,35,37,36,35,2
843,29.414734840393066,36,37,42,52,34,38,37,34,2
844,29.437153339385986,36,36,43,53,35,39,40,35,2
845,29.45988440513611,29,28,32,40,26,38,38,28,2
846,29.474766969680786,28,27,34,39,27,40,39,27,2
847,29.497363805770874,33,34,39,44,30,41,40,28,2
848,29.51980996131897,37,41,43,46,37,44,47,33,2
849,29.536808729171753,37,41,41,41,37,40,46,34,2
850,29.557802438735962,39,42,41,42,37,38,45,35,2
851,29.57983422279358,43,47,45,51,39,38,46,34,2
852,29.59672975540161,42,43,41,44,37,34,45,36,2
853,29.617307662963867,35,35,35,42,31,29,37,34,2
854,29.639917850494385,38,39,41,49,33,30,35,33,2
855,29.656580686569214,35,37,41,48,34,31,35,33,2
856,29.677324295043945,31,31,36,42,33,30,35,33,2
857,29.699790954589844,35,40,43,56,38,35,42,34,2
858,29.71658730506897,36,40,42,55,40,35,41,31,2
859,29.73866367340088,32,36,37,49,38,34,40,30,2
860,29.759356260299683,36,38,40,52,40,37,42,28,2
861,29.77566385269165,38,40,42,51,40,49,53,33,2
862,29.797037839889526,32,30,34,40,36,47,47,30,2
863,29.819803714752197,31,29,36,40,33,51,51,31,2
864,29.83662462234497,30,30,38,44,37,53,54,35,2
865,29.85756516456604,35,37,46,52,38,53,54,38,2
866,29.879645109176636,34,36,44,51,37,41,41,33,2
867,29.904242277145386,35,36,43,47,36,40,40,32,2
868,29.917296171188354,37,35,42,47,36,33,36,30,2
869,29.94064164161682,38,34,40,48,38,39,34,27,2
870,29.957196950912476,35,28,33,39,37,49,47,27,2
871,29.978419542312622,34,28,32,37,40,117,73,30,2
872,29.999680280685425,36,31,36,46,41,123,76,32,2
873,30.02229595184326,33,32,35,46,42,126,79,33,2
874,30.037501573562622,34,33,34,41,37,125,80,32,2
875,30.05969786643982,31,32,32,41,34,122,73,29,2
876,30.082444429397583,33,34,34,43,31,62,48,28,2
877,30.09730577468872,30,32,30,32,27,50,42,26,2
878,30.11983299255371,31,31,31,33,28,47,44,28,2
879,30.142268180847168,28,31,30,33,26,42,38,27,2
880,30.15717053413391,36,38,42,50,42,47,49,34,2
881,30.179682731628418,35,42,45,54,44,48,53,34,2
882,30.2030086517334,37,43,47,54,46,46,54,34,2
883,30.21722650527954,37,43,47,53,45,45,50,32,2
884,30.239763498306274,40,45,49,60,47,46,56,35,2
885,30.262061595916748,31,37,37,45,34,37,43,30,2
886,30.277141094207764,29,33,33,41,32,40,44,28,2
887,30.29972815513611,28,32,34,43,33,44,46,30,2
888,30.32268524169922,31,36,39,46,35,44,47,33,2
889,30.33749008178711,30,34,39,38,32,40,41,29,2
890,30.359955549240112,37,43,45,45,38,41,43,34,2
891,30.382341861724854,38,44,45,46,38,39,38,35,2
892,30.397180318832397,38,44,42,44,36,46,38,33,2
893,30.41986608505249,50,51,49,52,43,51,48,39,2
894,30.442423343658447,51,52,48,54,43,51,47,39,2
895,30.457067489624023,46,45,44,49,39,50,46,36,2
896,30.479670524597168,46,44,45,50,39,47,47,37,2
897,30.502283811569214,46,45,47,51,40,40,46,36,2
898,30.517069339752197,31,35,39,44,35,36,38,32,2
899,30.539264917373657,29,34,36,42,36,37,38,34,2
900,30.561760187149048,29,32,33,40,35,36,38,33,2
901,30.58470582962036,30,30,32,38,35,37,38,31,2
902,30.601739168167114,30,29,30,35,35,37,40,36,2
903,30.622159004211426,39,34,37,36,34,38,50,36,2
904,30.63716411590576,39,34,37,35,35,37,48,34,2
905,30.659611225128174,42,35,39,37,36,37,49,35,2
906,30.682555198669434,44,39,44,49,36,38,52,41,2
907,30.696802139282227,44,39,45,50,34,44,52,40,2
908,30.719181060791016,34,32,37,47,33,53,45,38,2
909,30.741772174835205,38,37,43,55,36,65,52,42,2
910,30.75814437866211,36,36,41,54,35,66,51,40,2
911,30.779712200164795,33,32,36,43,34,65,49,33,2
912,30.80235195159912,32,33,33,42,33,61,45,31,2
913,30.817022800445557,36,38,39,46,39,52,43,34,2
914,30.839569568634033,30,33,32,37,35,35,33,30,2
915,30.862165927886963,32,35,35,41,36,35,37,35,2
916,30.87788438796997,31,35,33,40,36,33,35,35,2
917,30.90005874633789,37,38,41,46,44,36,42,40,2
918,30.922379970550537,34,33,35,42,37,33,41,38,2
919,30.937403440475464,34,36,37,44,38,35,42,37,2
920,30.959802627563477,36,38,40,48,44,50,52,36,2
921,30.982668161392212,37,40,43,52,45,52,56,40,2
922,31.004666805267334,30,37,36,47,39,50,50,35,2
923,31.019640684127808,31,37,35,46,42,53,51,33,2
924,31.041630029678345,35,36,37,46,43,54,54,35,2
925,31.065138816833496,33,32,32,38,41,40,45,32,2
926,31.07932758331299,30,29,28,35,41,37,41,31,2
927,31.102631330490112,34,28,29,38,40,38,41,32,2
928,31.1251323223114,32,26,28,37,36,34,37,31,2
929,31.14018750190735,30,28,26,34,32,34,35,29,2
930,31.16230607032776,28,27,26,33,28,31,28,28,2
931,31.18666410446167,34,31,31,34,32,36,34,28,2
932,31.199739694595337,35,32,33,34,31,46,46,32,2
933,31.222242832183838,38,34,36,40,32,47,49,34,2
934,31.244369745254517,38,34,35,41,34,46,49,34,2
935,31.259687185287476,38,40,39,45,34,53,54,35,2
936,31.28251624107361,37,38,41,49,31,51,50,36,2
937,31.304625272750854,33,37,38,46,29,41,40,33,2
938,31.320017337799072,30,36,38,40,29,41,39,32,2
939,31.342199563980103,38,42,44,47,43,51,52,38,2
940,31.365020751953125,38,37,43,48,45,48,49,36,2
941,31.37974452972412,37,40,43,47,48,53,54,37,2
942,31.402236938476562,38,40,43,48,50,54,55,36,2
943,31.425312042236328,39,38,40,47,50,61,55,35,2
944,31.439610481262207,33,32,35,40,39,58,42,28,2
945,31.462498903274536,37,36,38,40,37,66,49,33,2
946,31.484687328338623,42,33,35,36,31,79,66,41,2
947,31.50731897354126,44,35,37,35,34,152,128,52,2
948,31.522436141967773,44,36,38,36,33,158,131,54,2
949,31.544718980789185,43,33,35,36,32,181,143,55,2
950,31.567814826965332,47,32,35,38,38,186,157,58,2
951,31.582199096679688,43,29,33,40,43,196,219,55,2
952,31.60478401184082,56,39,41,52,50,175,195,59,2
953,31.619994163513184,56,38,41,53,51,169,198,57,2
954,31.64212393760681,57,42,44,53,52,145,194,58,2
955,31.664592027664185,52,40,40,47,48,178,195,58,2
956,31.679564237594604,59,49,44,51,53,164,126,56,2
957,31.7021906375885,46,40,35,39,44,143,120,47,2
958,31.72468876838684,48,44,51,54,47,171,121,48,2
959,31.73959970474243,46,41,56,68,46,178,115,49,2
960,31.762155532836914,46,40,61,98,52,139,94,46,2
961,31.784729719161987,40,36,59,97,55,136,82,43,2
962,31.800904273986816,39,36,60,98,57,172,88,38,2
963,31.822121620178223,43,42,54,101,63,146,79,41,2
964,31.84491467475891,44,44,61,110,68,135,76,37,2
965,31.859668970108032,47,45,59,90,65,132,72,35,2
966,31.882262706756592,42,41,58,90,57,162,73,35,2
967,31.904703617095947,42,41,58,92,54,120,61,31,2
968,31.92727518081665,40,41,60,97,48,118,66,35,2
969,31.942299365997314,45,43,53,98,54,119,67,38,2
970,31.964778423309326,44,42,53,103,59,122,67,39,2
971,31.987473487854004,45,42,55,108,61,74,58,39,2
972,32.002241134643555,48,45,61,108,64,62,57,44,2
973,32.024840354919434,46,39,56,129,66,61,47,36,2
974,32.04662752151489,44,38,71,161,70,63,49,41,2
975,32.0621280670166,45,40,96,175,66,53,46,47,2
976,32.08474373817444,47,40,96,176,64,51,52,47,2
977,32.10712242126465,63,51,98,196,94,59,65,51,2
978,32.64738416671753,77,59,49,59,47,41,67,86,1
979,32.662089586257935,75,59,46,56,43,40,59,85,1
980,32.68492555618286,72,58,48,61,53,54,69,79,1
981,32.71529722213745,68,48,42,57,56,58,69,77,1
982,32.72217130661011,57,46,40,55,53,56,68,60,1
983,32.744826555252075,50,46,41,55,51,54,61,51,1
984,32.767362117767334,72,54,50,66,60,59,70,85,1
985,32.7822527885437,69,49,44,57,49,47,58,86,1
986,32.80484652519226,71,50,45,59,53,49,57,86,1
987,32.82741117477417,72,50,48,62,58,54,57,86,1
988,32.850398778915405,70,49,47,63,64,58,57,86,1
989,32.864680767059326,49,43,41,61,66,61,51,55,1
990,32.88714814186096,49,46,41,60,66,61,53,57,1
991,32.91038990020752,45,45,39,56,58,54,52,50,1
992,32.924617767333984,45,47,42,56,56,49,54,55,1
993,32.94711446762085,45,48,41,55,50,45,52,54,1
994,32.96994400024414,46,47,43,53,49,41,51,55,1
995,32.984907150268555,48,45,45,54,53,47,53,52,1
996,33.007465839385986,46,45,44,54,53,46,51,55,1
997,33.03053665161133,50,47,44,57,56,50,52,55,1
998,33.04471230506897,54,55,49,58,59,52,60,61,1
999,33.06737756729126,50,55,45,54,51,45,54,57,1
1000,33.090707778930664,53,59,49,63,57,45,57,61,1
1001,33.104793548583984,60,67,55,67,60,47,62,62,1
1002,33.12715530395508,55,67,54,68,59,45,59,57,1
1003,33.150702238082886,52,60,50,69,59,46,56,55,1
1004,33.164846658706665,56,60,50,67,60,49,62,62,1
1005,33.18680286407471,54,58,50,62,53,44,57,58,1
1006,33.20979404449463,52,52,49,67,52,44,58,59,1
1007,33.224653005599976,51,49,48,63,50,46,58,62,1
1008,33.24795198440552,50,47,47,59,46,40,54,57,1
1009,33.27008938789368,47,48,49,59,46,39,52,49,1
1010,33.284266233444214,48,48,48,58,50,43,57,54,1
1011,33.307523012161255,47,50,50,56,54,45,55,54,1
1012,33.3299126625061,50,53,49,54,55,44,54,51,1
1013,33.34459352493286,51,55,49,54,55,46,54,53,1
1014,33.367103099823,54,51,44,51,50,43,48,56,1
1015,33.39016151428223,59,56,51,62,57,50,49,55,1
1016,33.404842376708984,62,57,51,57,52,49,50,64,1
1017,33.42719268798828,59,54,48,55,48,47,49,67,1
1018,33.449763774871826,61,58,56,62,54,52,57,70,1
1019,33.464524030685425,56,58,56,62,55,52,60,67,1
1020,33.48729991912842,47,49,47,50,42,43,53,63,1
1021,33.509796142578125,38,41,41,46,39,41,51,52,1
1022,33.5248601436615,40,41,45,51,46,41,52,49,1
1023,33.547444105148315,32,30,35,43,38,33,43,46,1
1024,33.56978106498718,40,37,43,57,48,36,45,54,1
1025,33.58468174934387,47,45,51,69,59,41,51,55,1
1026,33.607664823532104,50,50,53,75,63,40,48,54,1
1027,33.63828921318054,48,50,52,72,60,39,46,53,1
1028,33.64472150802612,57,58,58,78,66,47,56,55,1
1029,33.667263984680176,53,53,54,69,58,44,51,50,1
1030,33.68977189064026,49,47,47,57,47,39,47,54,1
1031,33.705029249191284,49,45,47,58,45,38,48,52,1
1032,33.727275371551514,50,43,45,59,45,39,52,50,1
1033,33.749674558639526,42,35,36,53,39,32,48,49,1
1034,33.76473617553711,42,36,36,56,44,34,45,47,1
1035,33.789342403411865,42,36,36,59,47,37,49,44,1
1036,33.810126066207886,38,33,32,53,46,38,48,47,1
1037,33.83389711380005,44,37,37,62,51,43,50,49,1
1038,33.847458362579346,42,35,39,60,49,40,44,46,1
1039,33.87034559249878,43,38,42,62,49,42,44,47,1
1040,33.892826795578,44,39,43,62,51,43,43,44,1
1041,33.907164096832275,42,36,46,62,53,43,44,38,1
1042,33.92964315414429,43,35,46,61,57,46,49,40,1
1043,33.95291829109192,45,36,47,62,62,50,57,50,1
1044,33.96715331077576,42,32,43,58,60,49,57,48,1
1045,33.98969316482544,47,32,44,56,60,47,57,49,1
1046,34.01259398460388,51,37,43,55,62,55,67,54,1
1047,34.027153730392456,44,34,37,47,55,50,60,51,1
1048,34.04973840713501,45,37,38,53,51,48,55,43,1
1049,34.07275605201721,52,45,46,65,61,54,64,46,1
1050,34.087629079818726,50,48,46,72,65,57,70,53,1
1051,34.10972881317139,48,47,48,76,64,51,61,50,1
1052,34.13294744491577,63,59,64,97,87,69,79,66,1
1053,34.147221088409424,62,58,63,93,89,70,79,67,1
1054,34.16965985298157,57,52,58,86,85,66,74,68,1
1055,34.19288158416748,54,49,58,81,82,64,70,60,1
1056,34.20716738700867,51,47,57,77,81,62,68,58,1
1057,34.22969102859497,33,33,38,47,56,43,48,40,1
1058,34.253517627716064,35,35,42,47,52,41,47,44,1
1059,34.26734495162964,47,45,49,54,61,54,61,46,1
1060,34.289358377456665,59,53,56,61,70,59,70,54,1
1061,34.31288552284241,59,55,57,61,69,58,71,54,1
1062,34.32714247703552,60,56,61,64,70,59,72,53,1
1063,34.3493070602417,58,54,58,62,67,57,70,47,1
1064,34.37247896194458,48,46,51,54,53,41,56,40,1
1065,34.38731074333191,31,33,38,42,41,114,81,32,1
1066,34.40967798233032,34,32,37,42,40,117,85,32,1
1067,34.433472871780396,34,34,36,45,46,121,87,34,1
1068,34.447267055511475,35,35,37,46,52,128,88,36,1
1069,34.46980166435242,36,38,39,52,59,131,88,35,1
1070,34.492786169052124,38,41,42,54,56,73,55,39,1
1071,34.50751495361328,39,41,43,53,58,72,50,39,1
1072,34.52937865257263,36,37,39,49,53,64,44,38,1
1073,34.55299210548401,35,36,39,47,47,48,41,36,1
1074,34.56745409965515,38,37,41,47,47,45,41,38,1
1075,34.58970618247986,36,34,37,44,45,42,37,32,1
1076,34.61395883560181,37,36,40,52,49,35,38,33,1
1077,34.62729072570801,44,42,47,59,55,40,43,33,1
1078,34.65014696121216,46,43,48,61,56,42,47,34,1
1079,34.67249870300293,44,40,44,57,52,44,49,35,1
1080,34.68680143356323,46,43,48,59,55,44,52,38,1
1081,34.70971083641052,47,47,50,59,63,55,59,39,1
1082,34.73286771774292,45,47,47,59,62,54,60,45,1
1083,34.75532245635986,43,46,47,56,61,53,59,45,1
1084,34.769681215286255,42,45,49,55,60,51,58,43,1
1085,34.7930006980896,45,49,50,63,67,55,63,43,1
1086,34.81590986251831,39,42,42,54,53,46,53,41,1
1087,34.82968735694885,48,51,51,64,71,63,67,50,1
1088,34.85250210762024,51,54,52,70,75,64,68,51,1
1089,34.87530732154846,52,54,53,70,76,63,67,51,1
1090,34.88980579376221,48,49,50,63,70,60,63,49,1
1091,34.912863969802856,48,50,52,64,70,59,64,49,1
1092,34.94285988807678,40,38,43,53,60,52,53,40,1
1093,34.9495153427124,38,34,40,52,59,53,53,39,1
1094,34.972875118255615,41,38,40,57,61,54,55,46,1
1095,34.995797634124756,42,39,40,55,62,52,53,46,1
1096,35.00965881347656,41,38,39,54,62,54,56,46,1
1097,35.033047676086426,38,34,34,48,48,39,48,40,1
1098,35.05548977851868,36,35,38,45,45,39,46,38,1
1099,35.070286989212036,39,37,42,49,45,44,49,30,1
1100,35.092963218688965,43,41,47,54,54,50,52,34,1
1101,35.115750312805176,43,39,45,53,53,46,47,34,1
1102,35.12997007369995,45,41,46,54,54,49,51,39,1
1103,35.15281319618225,45,42,45,56,57,49,52,39,1
1104,35.17608976364136,39,39,43,55,55,44,45,37,1
1105,35.189611196517944,34,33,37,49,45,40,43,36,1
1106,35.22035026550293,44,43,46,58,53,42,47,43,1
1107,35.23532462120056,43,42,43,56,52,38,41,38,1
1108,35.24967122077942,45,42,44,57,55,42,44,40,1
1109,35.27285552024841,46,40,42,51,53,42,44,40,1
1110,35.295494079589844,43,39,40,51,51,41,42,39,1
1111,35.31096601486206,38,34,37,49,50,45,46,33,1
1112,35.33301305770874,38,32,38,51,49,46,47,35,1
1113,35.35544466972351,38,28,35,49,45,41,44,32,1
1114,35.36975836753845,40,30,37,50,47,44,49,35,1
1115,35.39344549179077,41,31,37,50,49,47,52,38,1
1116,35.41558265686035,37,28,33,46,45,42,47,38,1
1117,35.42964029312134,36,29,32,44,46,42,47,40,1
1118,35.45302224159241,38,31,37,47,46,44,49,41,1
1119,35.47545766830444,35,31,35,45,42,40,44,40,1
1120,35.489781618118286,36,33,35,43,43,39,46,37,1
1121,35.51292109489441,36,30,35,42,42,43,48,38,1
1122,35.535502195358276,35,33,37,45,41,41,46,36,1
1123,35.549720764160156,33,33,37,43,38,38,42,35,1
1124,35.57325339317322,50,44,45,59,59,54,61,50,1
1125,35.595361948013306,50,42,45,59,58,51,57,49,1
1126,35.609869718551636,53,45,47,60,60,50,56,48,1
1127,35.633291721343994,53,42,45,58,59,51,57,49,1
1128,35.655789375305176,55,43,44,59,64,55,61,50,1
1129,35.669278383255005,43,33,37,45,48,39,42,34,1
1130,35.692466259002686,42,34,38,44,49,40,43,35,1
1131,35.715322971343994,40,32,36,44,48,41,42,33,1
1132,35.737886905670166,44,35,41,49,56,47,53,39,1
1133,35.75283098220825,41,31,38,41,48,41,50,38,1
1134,35.77549886703491,40,30,38,39,47,43,50,39,1
1135,35.79814887046814,48,34,44,54,59,45,52,43,1
1136,35.81281113624573,47,34,46,55,59,43,51,41,1
1137,35.8354115486145,42,32,43,53,54,39,42,36,1
1138,35.858132123947144,44,36,48,61,59,39,42,39,1
1139,35.872859477996826,42,37,50,68,63,40,42,41,1
1140,35.895336627960205,33,34,45,60,55,38,38,38,1
1141,35.91922426223755,32,33,40,56,50,37,39,37,1
1142,35.93286156654358,40,38,45,61,57,44,43,39,1
1143,35.955681562423706,37,35,39,55,54,46,47,37,1
1144,35.9779691696167,37,35,35,46,48,45,47,33,1
1145,35.992849349975586,40,39,33,42,48,47,50,33,1
1146,36.01486086845398,40,39,37,46,51,49,51,36,1
1147,36.03837561607361,37,38,33,43,45,43,51,35,1
1148,36.0528998374939,37,37,32,41,42,41,45,34,1
1149,36.075376987457275,47,47,45,57,56,48,53,42,1
1150,36.0979528427124,46,45,51,66,54,45,54,44,1
1151,36.112794160842896,46,45,51,65,52,43,53,43,1
1152,36.13551354408264,47,45,54,67,55,44,52,43,1
1153,36.15951418876648,50,50,61,75,64,50,54,48,1
1154,36.17266345024109,41,42,53,70,53,42,47,43,1
1155,36.19676113128662,39,40,59,106,57,45,45,45,1
1156,36.21773672103882,38,41,59,108,58,43,42,44,1
1157,36.23219442367554,34,39,56,106,53,40,38,42,1
1158,36.25553822517395,36,37,54,107,49,34,38,43,1
1159,36.278218507766724,38,42,61,116,55,38,38,44,1
1160,36.292097330093384,43,42,84,226,107,66,49,47,1
1161,36.315266370773315,83,68,91,246,199,129,92,76,1
1162,36.33780336380005,98,75,94,253,210,143,106,79,1
1163,36.35220694541931,125,134,130,356,355,212,132,92,1
1164,36.375444173812866,158,169,139,512,401,238,162,104,1
1165,36.3988356590271,167,176,141,492,441,255,173,110,1
1166,36.41244077682495,183,196,146,491,464,277,193,101,1
1167,36.43532991409302,182,203,161,516,469,276,193,101,1
1168,36.45784592628479,170,174,137,462,376,230,181,88,1
1169,36.47251081466675,142,141,128,287,328,204,156,75,1
1170,36.495583295822144,132,132,107,283,258,176,140,61,1
1171,36.518195390701294,96,97,93,276,153,104,99,50,1
1172,36.5317440032959,91,81,61,221,124,89,87,52,1
1173,36.55481290817261,80,72,50,200,109,82,77,49,1
1174,36.57813620567322,77,71,48,192,109,82,76,50,1
1175,36.592456340789795,88,87,48,122,128,95,95,49,1
1176,36.615363359451294,81,79,50,146,115,79,81,44,1
1177,36.63808512687683,77,74,61,158,118,78,80,44,1
1178,36.660298109054565,84,78,67,165,130,83,82,48,1
1179,36.6755530834198,85,79,67,162,134,85,81,46,1
1180,36.697582721710205,72,61,64,163,109,64,54,45,1
1181,36.720041275024414,65,56,63,135,97,59,47,49,1
1182,36.73535776138306,59,57,55,133,94,58,48,51,1
1183,36.7578809261322,49,50,53,118,82,52,47,48,1
1184,36.780431032180786,48,51,53,119,76,50,55,51,1
1185,36.795496702194214,49,55,58,122,78,53,60,57,1
1186,36.81812119483948,54,55,61,123,86,59,67,56,1
1187,36.8404176235199,56,54,59,99,81,59,65,48,1
1188,36.85538721084595,58,53,54,101,71,58,65,48,1
1189,37.65739321708679,31,33,47,82,52,38,46,31,2
1190,37.680556535720825,28,30,44,77,44,33,37,25,2
1191,37.70320439338684,30,31,44,76,45,32,35,26,2
1192,37.71823692321777,31,30,48,78,44,33,35,23,2
1193,37.74044346809387,31,31,43,77,44,30,33,25,2
1194,37.763338565826416,32,36,48,76,41,30,34,30,2
1195,37.7782039642334,30,35,48,75,42,29,32,31,2
1196,37.80042576789856,29,36,46,75,46,31,32,33,2
1197,37.82288718223572,29,36,43,70,46,28,30,33,2
1198,37.8380811214447,32,32,44,58,42,30,29,34,2
1199,37.860332012176514,34,32,41,59,46,31,31,33,2
1200,37.882912397384644,38,34,44,73,49,31,33,33,2
1201,37.8978316783905,38,35,45,72,45,31,31,32,2
1202,37.92094087600708,39,38,46,73,48,33,33,32,2
1203,37.95048141479492,37,37,45,84,47,31,32,31,2
1204,37.95811319351196,33,35,49,94,47,30,28,32,2
1205,37.980342626571655,32,36,47,88,44,29,31,32,2
1206,38.0032172203064,43,42,53,95,51,40,49,41,2
1207,38.01721739768982,43,41,52,93,50,42,48,42,2
1208,38.04045081138611,47,45,51,89,53,43,51,44,2
1209,38.063231468200684,46,43,43,73,48,43,51,42,2
1210,38.077094316482544,51,48,53,76,51,51,60,46,2
1211,38.10033178329468,40,40,46,67,41,40,47,37,2
1212,38.12298345565796,40,41,46,67,42,40,46,36,2
1213,38.137518882751465,34,35,43,56,36,39,43,32,2
1214,38.16103506088257,36,37,44,60,38,39,46,33,2
1215,38.181896448135376,29,29,34,51,34,28,33,28,2
1216,38.20413160324097,30,30,42,55,35,29,34,30,2
1217,38.22752094268799,31,28,39,52,32,25,34,29,2
1218,38.2426381111145,35,30,41,52,31,26,36,30,2
1219,38.266653060913086,33,30,43,53,30,27,32,30,2
1220,38.28147506713867,33,31,41,52,31,29,33,28,2
1221,38.302385568618774,35,32,32,44,29,33,34,26,2
1222,38.32483172416687,32,29,36,45,31,35,37,28,2
1223,38.341503620147705,30,28,37,53,33,34,35,28,2
1224,38.362178325653076,30,27,34,49,34,33,33,26,2
1225,38.38513517379761,32,30,37,54,37,33,34,26,2
1226,38.40147542953491,31,29,38,54,38,31,32,27,2
1227,38.42335796356201,32,31,35,61,37,32,29,28,2
1228,38.4448676109314,33,35,34,59,42,33,34,29,2
1229,38.46152353286743,35,38,35,60,41,34,36,29,2
1230,38.482178926467896,40,39,38,64,42,39,44,30,2
1231,38.50468969345093,40,39,39,70,42,41,45,31,2
1232,38.52132701873779,39,40,39,67,43,39,45,29,2
1233,38.54260206222534,36,35,39,63,37,39,41,28,2
1234,38.564810276031494,35,34,38,62,38,38,43,27,2
1235,38.58263301849365,26,27,32,57,34,34,32,25,2
1236,38.60254406929016,25,27,31,53,36,31,30,26,2
1237,38.62495803833008,26,25,31,53,39,31,31,27,2
1238,38.64176368713379,26,23,29,51,38,27,31,26,2
1239,38.663349628448486,29,25,33,52,38,29,33,28,2
1240,38.68486571311951,29,26,33,50,34,28,34,29,2
1241,38.70163869857788,31,30,36,55,36,29,34,30,2
1242,38.72213339805603,30,30,34,49,32,29,32,30,2
1243,38.74472498893738,31,32,36,51,33,31,35,30,2
1244,38.761542558670044,26,28,31,51,33,31,33,30,2
1245,38.782142639160156,27,29,34,50,35,31,33,29,2
1246,38.804664850234985,25,24,30,39,30,30,32,27,2
1247,38.823070764541626,27,27,35,44,32,33,36,26,2
1248,38.84214520454407,26,25,33,43,34,33,32,27,2
1249,38.86472177505493,27,25,34,43,33,33,30,28,2
1250,38.88146638870239,26,25,30,41,32,31,28,27,2
1251,38.90230393409729,26,25,28,41,34,31,29,28,2
1252,38.92478799819946,28,29,32,49,38,39,34,28,2
1253,38.94268226623535,29,30,34,54,36,38,36,28,2
1254,38.962178468704224,30,29,32,54,36,39,35,28,2
1255,38.984171867370605,31,28,33,55,37,39,36,29,2
1256,39.00161790847778,38,36,42,61,41,44,41,30,2
1257,39.02219843864441,34,31,35,52,34,35,35,29,2
1258,39.04466772079468,36,32,35,45,34,35,34,28,2
1259,39.06301164627075,39,37,38,47,42,43,40,31,2
1260,39.08212947845459,39,40,40,47,42,43,40,30,2
1261,39.10452151298523,34,35,30,38,37,37,35,28,2
1262,39.12121319770813,35,36,30,38,36,38,34,27,2
1263,39.14226412773132,34,38,34,47,39,40,37,31,2
1264,39.165059328079224,32,35,36,48,32,32,35,28,2
1265,39.18723726272583,29,32,33,46,31,32,36,29,2
1266,39.202285051345825,29,30,34,50,31,36,40,28,2
1267,39.22407364845276,27,30,35,61,36,37,39,28,2
1268,39.25054979324341,30,33,37,61,35,36,41,27,2
1269,39.26225709915161,28,30,33,58,34,33,37,26,2
1270,39.28630614280701,28,32,34,59,37,36,37,27,2
1271,39.3015456199646,29,32,33,55,36,33,32,25,2
1272,39.324050188064575,29,33,33,41,32,32,33,28,2
1273,39.344791650772095,23,25,27,33,29,30,27,27,2
1274,39.36250448226929,30,31,33,36,32,34,33,28,2
1275,39.38213229179382,31,30,31,35,29,31,35,28,2
1276,39.404985189437866,30,33,36,41,33,34,38,29,2
1277,39.42172956466675,30,32,34,43,32,34,37,28,2
1278,39.44229745864868,37,36,40,45,33,34,39,32,2
1279,39.464516162872314,32,35,37,43,28,30,37,35,2
1280,39.48190474510193,30,32,37,43,29,28,32,33,2
1281,39.50248146057129,32,32,38,42,34,31,33,35,2
1282,39.524951219558716,35,35,40,46,39,33,37,37,2
1283,39.547035932540894,30,35,41,52,43,35,39,35,2
1284,39.56233215332031,30,34,41,55,44,36,40,33,2
1285,39.58469200134277,31,37,45,62,47,38,42,35,2
1286,39.60741639137268,30,36,42,60,40,32,37,31,2
1287,39.62217473983765,29,35,42,59,37,33,38,32,2
1288,39.64471483230591,29,36,40,56,35,33,39,33,2
1289,39.667166233062744,32,36,42,56,36,36,40,32,2
1290,39.682305097579956,32,34,37,51,31,34,39,34,2
1291,39.70488977432251,38,40,41,61,42,38,45,39,2
1292,39.72716498374939,40,40,44,65,44,39,45,37,2
1293,39.74227046966553,40,36,42,64,45,39,44,36,2
1294,39.76461982727051,37,35,38,61,42,35,41,36,2
1295,39.787705421447754,42,39,43,66,44,37,44,38,2
1296,39.802311420440674,40,34,40,64,37,36,40,36,2
1297,39.82469367980957,38,31,37,63,34,32,35,34,2
1298,39.8472363948822,38,36,38,62,35,33,38,32,2
1299,39.862242460250854,38,36,39,65,38,35,40,34,2
1300,39.884233713150024,35,32,35,62,40,35,38,29,2
1301,39.90707206726074,34,36,37,55,40,35,41,28,2
1302,39.92206168174744,36,40,38,51,40,38,45,33,2
1303,39.945512533187866,34,35,37,55,39,38,40,33,2
1304,39.96716499328613,34,37,36,53,37,37,40,33,2
1305,39.98200440406799,31,36,35,47,33,34,39,34,2
1306,40.004579067230225,27,30,33,46,34,34,35,34,2
1307,40.02698016166687,23,25,29,41,33,32,31,32,2
1308,40.04210615158081,23,26,28,38,31,27,30,30,2
1309,40.06442832946777,24,25,26,36,34,29,30,30,2
1310,40.08705496788025,29,27,30,41,40,33,39,33,2
1311,40.10185408592224,26,25,29,40,37,28,36,32,2
1312,40.12478017807007,34,30,32,41,39,29,39,31,2
1313,40.14711594581604,33,28,30,39,40,29,38,31,2
1314,40.16219902038574,34,32,34,42,37,30,39,29,2
1315,40.18466806411743,31,32,32,35,30,27,31,25,2
1316,40.21573209762573,34,33,33,38,31,28,34,25,2
1317,40.221758127212524,28,29,34,39,33,29,30,24,2
1318,40.24427652359009,31,32,35,37,32,29,29,26,2
1319,40.267133474349976,30,28,33,33,33,27,29,31,2
1320,40.2820463180542,30,28,33,39,34,32,32,29,2
1321,40.30425047874451,31,31,33,38,34,34,33,31,2
1322,40.32727527618408,31,31,35,42,36,35,36,30,2
1323,40.34225630760193,30,31,36,46,38,37,38,29,2
1324,40.36510109901428,29,33,34,47,37,37,37,25,2
1325,40.389305114746094,28,31,32,44,38,33,35,28,2
1326,40.4042329788208,28,32,36,52,40,33,34,26,2
1327,40.4246461391449,26,31,34,47,37,32,30,27,2
1328,40.447041034698486,26,30,32,45,40,32,32,30,2
1329,40.46967101097107,27,27,34,44,40,31,30,30,2
1330,40.48518133163452,28,31,35,48,40,31,31,27,2
1331,40.50742030143738,26,27,28,44,37,27,29,28,2
1332,40.529366970062256,31,30,30,48,35,28,31,26,2
1333,40.544437646865845,32,32,30,48,32,27,30,26,2
1334,40.56740736961365,36,36,32,52,34,31,33,27,2
1335,40.59035015106201,36,33,32,47,33,31,33,26,2
1336,40.6046245098114,34,33,33,46,31,30,32,25,2
1337,40.62723469734192,37,37,36,54,37,34,36,28,2
1338,40.64988136291504,34,35,36,52,36,33,35,27,2
1339,40.664878368377686,28,32,32,48,31,29,31,27,2
1340,40.68708658218384,30,32,36,49,33,29,34,31,2
1341,40.709609031677246,32,35,38,46,35,32,35,34,2
1342,40.72464346885681,24,26,34,38,29,25,29,33,2
1343,40.74723982810974,26,27,33,40,26,25,27,31,2
1344,40.769543409347534,28,28,35,41,27,25,28,29,2
1345,40.7845733165741,31,30,33,41,31,26,27,27,2
1346,40.80719828605652,29,26,28,42,27,24,24,23,2
1347,40.82961845397949,33,31,29,38,27,26,28,27,2
1348,40.84478688240051,38,37,35,47,34,32,40,35,2
1349,40.86713528633118,41,41,36,46,36,35,44,37,2
1350,40.89022636413574,37,40,35,44,30,34,41,37,2
1351,40.904698610305786,42,43,42,51,36,43,49,39,2
1352,40.92709970474243,43,42,43,53,38,44,51,37,2
1353,40.94994258880615,40,37,40,45,31,39,43,30,2
1354,40.964518785476685,36,32,39,45,30,36,39,27,2
1355,40.98711562156677,38,32,39,45,31,40,43,27,2
1356,41.00954341888428,34,29,35,38,26,30,35,25,2
1357,41.0248007774353,28,28,31,34,24,29,31,26,2
1358,41.04706597328186,36,34,35,41,36,37,41,34,2
1359,41.069924116134644,37,35,34,42,35,37,44,36,2
1360,41.08468794822693,34,33,32,42,35,35,39,35,2
1361,41.10763716697693,33,33,30,39,35,37,40,35,2
1362,41.13235282897949,34,32,30,37,35,33,39,35,2
1363,41.14469337463379,22,22,24,30,25,24,26,26,2
1364,41.167081117630005,22,22,27,28,26,25,25,23,2
1365,41.190189599990845,27,27,32,34,34,29,32,28,2
1366,41.20502161979675,30,27,34,38,35,29,34,27,2
1367,41.22720646858215,30,29,36,39,38,32,37,25,2
1368,41.24969124794006,33,32,38,42,45,39,44,30,2
1369,41.272141218185425,36,34,42,48,48,41,45,34,2
1370,41.28708028793335,33,32,39,50,47,41,42,32,2
1371,41.326061964035034,33,30,39,51,47,40,43,34,2
1372,41.32811117172241,35,36,43,54,51,45,51,37,2
1373,41.34759211540222,33,34,40,52,45,40,46,35,2
1374,41.37195086479187,30,32,34,46,40,39,44,29,2
1375,41.39223289489746,30,31,35,40,41,37,44,30,2
1376,41.407129526138306,28,31,33,37,40,36,41,31,2
1377,41.42969870567322,25,24,26,39,34,28,28,27,2
1378,41.45221924781799,25,25,29,41,37,32,31,25,2
1379,41.4672167301178,32,33,34,48,40,36,36,30,2
1380,41.48988389968872,31,34,31,48,33,35,34,29,2
1381,41.51296424865723,31,34,31,46,34,39,34,26,2
1382,41.52706050872803,36,38,35,41,36,44,42,28,2
1383,41.55797982215881,36,36,33,42,34,39,41,29,2
1384,41.572226762771606,31,30,32,40,33,37,39,26,2
1385,41.58719205856323,33,31,33,40,35,36,39,28,2
1386,41.61027193069458,33,30,32,40,34,32,39,27,2
1387,41.63212776184082,28,26,30,40,31,25,30,28,2
1388,41.64720964431763,27,26,29,37,29,25,29,30,2
1389,41.669883489608765,29,28,30,40,33,26,32,29,2
1390,41.693721532821655,36,34,40,44,45,42,48,42,2
1391,41.707451581954956,36,34,40,45,46,45,50,42,2
1392,41.72971200942993,34,34,40,46,47,44,50,41,2
1393,41.752386808395386,36,36,40,45,48,46,54,41,2
1394,41.76854491233826,35,34,37,40,45,45,50,40,2
1395,41.791542768478394,27,27,25,33,34,31,37,27,2
1396,41.81228804588318,31,33,30,38,39,31,37,29,2
1397,41.834959506988525,34,34,29,37,38,31,40,28,2
1398,41.849849224090576,32,33,28,38,38,29,32,26,2
1399,41.87315249443054,31,35,28,39,38,31,33,28,2
1400,41.88784670829773,32,36,32,45,41,33,33,30,2
1401,41.91013693809509,29,32,28,40,34,31,31,28,2
1402,41.932121992111206,27,27,26,38,34,31,26,30,2
1403,41.947163581848145,27,30,27,39,34,32,30,30,2
1404,41.96963715553284,28,29,28,39,34,30,31,29,2
1405,41.99245071411133,31,30,27,32,28,29,34,26,2
1406,42.007054567337036,31,29,27,31,30,32,34,25,2
1407,42.02971053123474,30,30,31,31,31,32,33,25,2
1408,42.05253458023071,29,30,32,32,34,34,32,26,2
1409,42.06702947616577,25,26,31,33,33,33,30,25,2
1410,42.08985733985901,22,28,29,35,34,31,24,27,2
1411,42.112173080444336,22,30,30,35,34,29,26,29,2
1412,42.12664747238159,22,30,27,36,32,30,27,26,2
1413,42.14967489242554,23,29,26,35,27,27,24,26,2
1414,42.1720917224884,30,33,33,38,33,29,29,28,2
1415,42.187151193618774,29,30,34,36,32,31,30,25,2
1416,42.20968794822693,30,30,33,36,35,32,31,24,2
1417,42.24037480354309,39,36,44,48,43,38,40,29,2
1418,42.24709463119507,39,36,45,49,44,38,41,29,2
1419,42.27000379562378,35,33,42,45,42,37,40,28,2
1420,42.291648626327515,37,34,42,44,43,36,40,32,2
1421,42.30725407600403,38,34,41,47,41,34,39,33,2
1422,42.32983350753784,30,26,27,32,30,25,29,29,2
1423,42.35217332839966,30,26,24,29,30,25,29,28,2
1424,42.3747398853302,44,37,40,50,43,36,42,34,2
1425,42.38947105407715,42,36,41,53,43,39,42,31,2
1426,42.412137508392334,41,36,43,50,42,39,41,32,2
1427,42.435646533966064,40,37,44,50,43,41,43,32,2
1428,42.449509143829346,41,40,47,57,45,43,45,33,2
1429,42.47293543815613,26,30,37,43,33,35,34,29,2
1430,42.49470400810242,27,31,35,39,31,34,36,30,2
1431,42.51088523864746,39,42,46,52,39,44,50,33,2
1432,42.53209686279297,40,43,47,53,41,44,50,33,2
1433,42.55469799041748,39,40,44,47,39,42,49,33,2
1434,42.56967329978943,42,43,42,44,37,40,48,33,2
1435,42.59272384643555,44,46,45,47,39,41,49,34,2
1436,42.61480760574341,34,37,34,38,33,34,39,29,2
1437,42.62970209121704,35,37,33,39,34,34,40,30,2
1438,42.65213704109192,36,38,32,41,37,39,41,30,2
1439,42.67521905899048,34,35,33,42,37,42,41,28,2
1440,42.68970203399658,31,29,29,39,36,40,39,25,2
1441,42.71220064163208,31,32,27,32,33,36,36,25,2
1442,42.73487448692322,29,30,29,35,37,36,35,24,2
1443,42.75143361091614,28,30,29,30,32,29,32,25,2
1444,42.772308349609375,28,29,27,34,32,25,31,27,2
1445,42.79480028152466,32,36,32,35,33,29,34,28,2
1446,42.80959439277649,31,33,32,36,33,33,32,28,2
1447,42.83229207992554,31,32,29,33,27,32,31,29,2
1448,42.85503363609314,29,33,30,35,29,32,32,31,2
1449,42.86961054801941,28,33,30,29,29,31,29,29,2
1450,42.8924241065979,23,26,25,30,29,27,25,29,2
1451,42.91479468345642,21,24,23,29,28,21,25,27,2
1452,42.92974042892456,20,23,22,32,32,23,24,25,2
1453,42.95227909088135,23,26,32,36,34,26,28,26,2
1454,42.97491765022278,26,31,38,43,38,30,33,28,2
1455,42.990076541900635,28,33,41,42,39,33,33,29,2
1456,43.01242399215698,28,33,41,41,38,35,34,29,2
1457,43.03472137451172,30,33,42,41,35,35,35,30,2
1458,43.04967737197876,34,38,44,51,36,37,40,33,2
1459,43.07224941253662,32,35,40,49,34,36,40,32,2
1460,43.094749212265015,31,32,38,49,35,35,39,32,2
1461,43.109832525253296,37,35,42,54,37,37,45,32,2
1462,43.132164478302,36,34,41,52,36,35,44,33,2
1463,43.15477633476257,35,33,36,44,39,36,42,32,2
1464,43.170005083084106,34,32,33,41,37,34,39,30,2
1465,43.19224977493286,35,35,35,42,38,34,40,32,2
1466,43.21465015411377,30,33,31,35,38,31,32,30,2
1467,43.2300922870636,29,33,30,36,39,32,34,29,2
1468,43.252177476882935,23,27,26,30,34,29,27,24,2
1469,43.27470898628235,24,28,26,30,36,30,29,27,2
1470,43.29763388633728,22,26,25,31,33,29,30,25,2
1471,43.3115975856781,26,29,28,36,37,34,36,31,2
1472,43.33468985557556,28,29,31,36,37,35,38,33,2
1473,43.35850191116333,29,31,31,38,40,37,38,32,2
1474,43.37214636802673,30,32,34,44,43,42,43,36,2
1475,43.39472556114197,31,31,34,45,44,42,41,37,2
1476,43.4177508354187,27,26,33,44,42,39,37,33,2
1477,43.43206334114075,26,26,30,43,39,36,33,30,2
1478,43.454806327819824,26,24,31,40,34,33,32,34,2
1479,43.47828483581543,24,23,30,36,26,26,25,28,2
1480,43.50057029724121,23,21,30,34,25,25,25,27,2
1481,43.515235900878906,27,22,27,31,23,23,27,29,2
1482,43.53745770454407,32,29,34,38,29,28,33,31,2
1483,43.55160641670227,33,29,33,37,28,28,34,29,2
1484,43.57494568824768,34,30,33,36,29,28,35,29,2
1485,43.597848653793335,34,30,33,39,29,27,35,31,2
1486,43.61216187477112,29,30,36,40,29,27,32,30,2
1487,43.63497233390808,23,26,31,36,27,28,32,28,2
1488,43.65815258026123,22,25,31,36,26,28,32,26,2
1489,43.672064781188965,22,27,30,39,26,29,31,25,2
1490,43.6951904296875,23,30,31,37,29,31,32,26,2
1491,43.71807312965393,23,29,26,35,27,32,31,25,2
1492,43.73296308517456,25,28,24,32,26,29,28,27,2
1493,43.7549352645874,30,35,34,38,33,32,36,30,2
1494,43.779287576675415,30,32,33,34,33,33,36,32,2
1495,43.79159951210022,28,29,32,34,30,32,33,30,2
1496,43.814879417419434,29,30,34,37,38,34,36,29,2
1497,43.83739423751831,27,29,33,38,38,32,33,25,2
1498,43.851754903793335,26,23,27,37,34,30,26,26,2
1499,43.875348806381226,29,26,29,37,36,33,32,28,2
1500,43.89822483062744,33,33,33,39,38,37,39,28,2
1501,43.911768198013306,42,42,38,50,38,41,48,34,2
1502,43.93412256240845,43,42,37,49,38,41,49,36,2
1503,43.95812726020813,42,41,36,45,40,42,49,33,2
1504,43.97217798233032,46,43,41,48,44,42,49,37,2
1505,43.99504280090332,49,42,41,51,47,42,49,41,2
1506,44.017871141433716,45,38,41,45,47,41,45,38,2
1507,44.03228306770325,46,43,47,50,47,41,47,40,2
1508,44.05534338951111,44,44,46,51,46,39,46,42,2
1509,44.08523178100586,37,41,40,48,40,36,43,35,2
1510,44.092509269714355,31,37,37,42,36,32,36,31,2
1511,44.11475229263306,24,31,33,35,29,29,30,31,2
1512,44.1383957862854,22,25,26,33,28,31,28,25,2
1513,44.152077198028564,23,24,26,32,27,31,28,24,2
1514,44.17526412010193,25,27,26,33,27,34,28,23,2
1515,44.197877168655396,29,32,33,39,27,34,33,26,2
1516,44.21235275268555,28,32,34,41,27,31,32,24,2
1517,44.24299073219299,28,31,34,39,26,30,32,27,2
1518,44.257840394973755,28,31,33,38,30,32,34,29,2
1519,44.28035640716553,29,30,35,41,34,35,36,29,2
1520,44.29466199874878,30,28,33,40,36,35,38,31,2
1521,44.31785798072815,31,28,32,37,33,37,40,32,2
1522,44.34043264389038,29,28,31,36,35,36,39,31,2
1523,44.354745388031006,29,29,30,37,32,33,36,29,2
1524,44.377784729003906,25,27,30,33,28,26,32,31,2
1525,44.40042519569397,21,23,23,27,25,23,24,25,2
1526,44.41465997695923,19,22,22,26,27,21,22,24,2
1527,44.43817067146301,24,29,26,32,32,26,28,30,2
1528,44.460314989089966,29,30,31,33,34,31,33,31,2
1529,44.47467875480652,30,31,28,32,31,32,33,32,2
1530,44.49784517288208,31,32,30,34,35,36,37,33,2
1531,44.520740270614624,32,33,33,38,38,39,37,34,2
1532,44.53876328468323,30,28,32,36,36,37,33,29,2
1533,44.55791115760803,25,26,29,33,33,34,28,27,2
1534,44.580408334732056,27,28,35,37,36,35,29,25,2
1535,44.59472465515137,26,26,32,37,33,32,25,27,2
1536,44.61707258224487,29,28,34,42,34,31,32,28,2
1537,44.64024806022644,31,34,35,40,32,29,33,28,2
1538,44.65469312667847,32,36,35,43,32,31,35,28,2
1539,44.67735505104065,30,33,30,40,29,29,36,28,2
1540,44.700592279434204,32,34,33,44,34,32,40,29,2
1541,44.714985609054565,31,37,32,39,30,30,36,29,2
1542,44.73727011680603,27,30,28,37,29,29,34,30,2
1543,44.760573863983154,26,29,27,36,33,28,33,30,2
1544,44.774962425231934,28,30,34,43,38,31,35,32,2
1545,44.79763627052307,24,29,30,37,34,28,31,28,2
1546,44.82101345062256,21,22,29,36,35,27,29,26,2
1547,44.83473587036133,21,24,30,36,35,27,28,25,2
1548,44.856987953186035,32,35,43,53,38,32,36,31,2
1549,44.88788390159607,30,35,39,48,35,30,32,30,2
1550,44.89466404914856,31,36,40,49,38,30,33,33,2
1551,44.91707253456116,35,39,43,54,38,33,37,34,2
1552,44.94066309928894,38,39,44,54,38,32,40,32,2
1553,44.954885482788086,30,29,32,39,33,27,33,29,2
1554,44.97730827331543,30,28,32,37,32,32,37,28,2
1555,45.00057601928711,32,29,33,38,29,36,43,27,2
1556,45.01458430290222,33,29,33,40,33,41,46,28,2
1557,45.0372850894928,30,28,31,40,34,42,44,28,2
1558,45.06054377555847,31,28,30,40,33,43,44,26,2
1559,45.074617862701416,35,28,35,42,33,40,44,26,2
1560,45.105639696121216,35,29,36,45,35,37,38,27,2
1561,45.12072229385376,28,24,30,37,31,29,28,27,2
1562,45.135098695755005,28,26,30,36,32,28,28,27,2
1563,45.15777373313904,32,29,37,43,41,35,36,27,2
1564,45.180336713790894,31,29,35,42,42,36,33,29,2
1565,45.20285177230835,31,28,31,37,39,35,33,24,2
1566,45.217185258865356,35,37,38,41,42,38,37,25,2
1567,45.240214586257935,36,38,39,40,41,37,37,24,2
1568,45.2631721496582,33,37,35,32,34,35,35,24,2
1569,45.27704882621765,36,40,38,33,35,37,41,27,2
1570,45.30000901222229,36,40,39,34,34,38,42,31,2
1571,45.32280158996582,36,37,38,34,30,35,42,34,2
1572,45.337377071380615,41,41,45,45,36,40,50,39,2
1573,45.360546827316284,40,40,44,46,38,37,47,40,2
1574,45.38284397125244,37,40,41,45,36,34,43,40,2
1575,45.39738345146179,38,39,41,45,38,34,41,38,2
1576,45.42024254798889,37,36,38,43,37,34,41,36,2
1577,45.442826986312866,40,41,37,38,35,35,38,35,2
1578,45.45703625679016,38,39,34,35,29,32,36,32,2
1579,45.48167276382446,40,40,38,38,35,46,44,32,2
1580,45.502726316452026,43,44,40,40,39,53,55,38,2
1581,45.517131090164185,42,43,39,39,38,54,55,37,2
1582,45.539830446243286,33,32,31,34,38,53,52,35,2
1583,45.56374406814575,35,34,33,35,40,55,54,37,2
1584,45.57728338241577,32,32,28,32,34,52,50,36,2
1585,45.60036277770996,31,30,30,32,33,48,53,37,2
1586,45.62302350997925,29,30,30,35,37,50,53,35,2
1587,45.63705801963806,29,34,30,33,33,49,52,34,2
1588,45.660346031188965,28,34,32,34,34,50,53,34,2
1589,45.682966470718384,31,33,33,36,35,40,51,32,2
1590,45.69727039337158,34,35,35,41,40,53,52,37,2
1591,45.72109889984131,35,35,34,42,37,51,53,42,2
1592,45.742944955825806,41,37,36,42,39,56,69,45,2
1593,45.757190465927124,40,37,34,42,40,72,79,49,2
1594,45.78025531768799,38,35,34,39,41,77,85,51,2
1595,45.80286693572998,36,35,32,35,37,80,85,52,2
1596,45.817163944244385,39,39,35,35,40,94,86,54,2
1597,45.8418915271759,33,37,32,35,39,96,76,51,2
1598,45.86285996437073,32,37,31,36,36,90,70,47,2
1599,45.877275705337524,32,36,30,37,35,103,71,49,2
1600,45.90030789375305,33,33,28,35,36,94,63,44,2
1601,45.92296004295349,28,29,24,32,32,82,65,39,2
1602,45.9376323223114,28,26,24,31,31,78,63,42,2
1603,45.96037745475769,29,25,32,38,32,72,60,46,2
1604,45.983057498931885,28,24,34,41,31,46,52,42,2
1605,45.9970817565918,26,26,37,43,28,51,53,39,2
1606,46.020790576934814,26,27,37,45,27,50,49,39,2
1607,46.042967081069946,25,27,38,44,26,44,48,36,2
1608,46.057234048843384,24,27,38,41,27,42,43,28,2
1609,46.08075499534607,26,32,46,43,31,42,41,30,2
1610,46.102925539016724,24,29,45,43,34,35,37,28,2
1611,46.11754488945007,28,28,49,46,34,33,35,28,2
1612,46.14061760902405,28,28,53,68,39,34,31,29,2
1613,46.17033910751343,30,30,50,71,38,33,32,31,2
1614,46.1853985786438,33,28,73,172,75,39,34,32,2
1615,46.20043921470642,37,28,110,251,101,37,34,45,2
1616,46.23892617225647,40,29,115,264,106,37,36,45,2
1617,46.24522852897644,43,35,116,265,107,39,44,49,2
1618,46.26027154922485,42,33,118,273,107,38,42,49,2
1619,46.282800912857056,40,32,110,235,94,34,40,52,2
1620,46.30542349815369,38,33,76,169,75,33,39,42,2
1621,46.32034707069397,33,32,69,159,74,33,37,42,2
1622,46.34314298629761,34,27,62,156,72,31,33,38,2
1623,46.36538791656494,39,30,75,192,87,32,35,46,2
1624,46.380295276641846,48,30,75,191,86,31,38,46,2
1625,46.402865171432495,48,28,76,185,83,32,38,47,2
1626,46.425811529159546,53,32,80,186,84,33,39,54,2
1627,46.440378189086914,58,34,82,223,95,42,47,53,2
1628,46.463098764419556,58,33,75,218,84,43,47,49,2
1629,46.48557496070862,53,34,80,237,98,44,47,52,2
1630,46.50047039985657,54,34,79,235,96,41,48,51,2
1631,47.003143548965454,42,32,37,67,35,32,38,42,1
1632,47.02557039260864,40,28,37,71,37,30,36,39,1
1633,47.039695501327515,44,31,41,72,38,30,35,40,1
1634,47.062875747680664,46,32,43,71,38,29,39,44,1
1635,47.08535838127136,41,27,44,77,43,27,34,44,1
1636,47.107866287231445,47,37,45,80,45,31,42,54,1
1637,47.122864961624146,44,38,47,88,44,32,43,56,1
1638,47.145726919174194,38,36,48,82,42,31,43,54,1
1639,47.16793632507324,49,46,55,86,50,40,46,56,1
1640,47.18290114402771,50,47,52,74,46,39,47,51,1
1641,47.205384492874146,48,44,52,69,54,45,49,45,1
1642,47.227991580963135,49,45,49,63,53,47,51,44,1
1643,47.25079321861267,53,46,47,62,56,49,52,51,1
1644,47.26564288139343,41,37,38,60,50,43,47,44,1
1645,47.28722858428955,44,40,41,75,54,46,53,47,1
1646,47.30228614807129,43,39,48,90,52,46,54,47,1
1647,47.32599949836731,42,38,48,85,51,44,51,46,1
1648,47.34776473045349,38,34,47,85,47,41,48,39,1
1649,47.36279058456421,41,37,49,89,48,43,53,40,1
1650,47.38503170013428,40,36,50,83,44,40,48,37,1
1651,47.40810251235962,35,29,35,61,31,32,39,31,1
1652,47.42224407196045,37,32,39,65,38,37,45,38,1
1653,47.44536638259888,39,39,44,69,48,42,50,39,1
1654,47.4673388004303,44,40,50,83,55,45,50,43,1
1655,47.482916593551636,42,38,47,81,56,44,50,40,1
1656,47.505571603775024,42,39,48,83,55,43,49,40,1
1657,47.527889013290405,41,38,46,81,51,40,46,33,1
1658,47.54278373718262,42,34,47,82,46,37,44,35,1
1659,47.56549382209778,35,27,39,60,33,29,36,31,1
1660,47.58743691444397,39,31,45,70,35,30,42,36,1
1661,47.601677656173706,44,35,48,78,43,35,48,37,1
1662,47.625455379486084,44,35,46,80,44,37,49,38,1
1663,47.64781928062439,42,33,40,91,43,40,48,35,1
1664,47.662267446517944,41,32,39,91,45,40,49,32,1
1665,47.685370683670044,44,35,37,92,47,47,47,34,1
1666,47.70780062675476,41,35,33,106,44,46,42,32,1
1667,47.72257161140442,43,37,36,110,44,44,43,32,1
1668,47.745413064956665,42,40,35,97,45,44,43,32,1
1669,47.76803255081177,41,40,37,101,44,45,43,35,1
1670,47.790677309036255,33,36,43,113,41,39,39,33,1
1671,47.8058705329895,32,33,47,96,39,36,40,34,1
1672,47.82775926589966,25,29,45,90,37,34,36,34,1
1673,47.84216618537903,29,29,45,90,37,33,38,38,1
1674,47.865355253219604,35,34,49,93,45,37,48,42,1
1675,47.887999057769775,34,33,42,78,43,35,47,41,1
1676,47.90189599990845,33,35,44,79,45,36,49,40,1
1677,47.925058126449585,41,40,50,96,52,41,54,43,1
1678,47.94812893867493,40,38,50,98,50,40,51,39,1
1679,47.962687730789185,41,38,50,97,51,46,48,39,1
1680,47.98520803451538,41,37,48,91,53,47,47,40,1
1681,48.007328033447266,41,36,42,94,52,47,45,40,1
1682,48.02201461791992,37,36,41,81,47,44,39,38,1
1683,48.04536509513855,43,40,41,84,58,54,51,44,1
1684,48.06810903549194,42,39,42,78,57,53,54,41,1
1685,48.09049677848816,41,40,45,87,61,54,55,40,1
1686,48.105563163757324,51,44,53,91,75,62,62,49,1
1687,48.12804555892944,52,42,49,85,75,63,64,48,1
1688,48.15035152435303,47,38,46,88,67,57,57,43,1
1689,48.16536521911621,46,38,45,95,63,51,53,43,1
1690,48.18825435638428,58,46,52,82,69,53,59,47,1
1691,48.21030569076538,51,42,44,78,56,45,55,37,1
1692,48.225170850753784,50,41,48,90,59,46,57,40,1
1693,48.247878074645996,49,42,48,84,60,43,56,39,1
1694,48.2706184387207,48,40,47,76,61,41,53,37,1
1695,48.285375118255615,30,29,36,87,50,35,45,30,1
1696,48.307793378829956,30,32,37,89,51,37,43,35,1
1697,48.33073925971985,33,34,35,91,49,39,43,35,1
1698,48.34657263755798,39,39,43,105,53,43,46,40,1
1699,48.36902618408203,41,40,46,113,53,44,46,37,1
1700,48.38965654373169,42,41,45,102,52,42,45,37,1
1701,48.40807318687439,47,46,47,100,53,48,57,42,1
1702,48.42954611778259,44,43,46,99,51,43,54,41,1
1703,48.44966506958008,41,39,40,87,48,39,51,38,1
1704,48.466461420059204,45,44,40,77,46,40,53,40,1
1705,48.48958420753479,55,51,49,83,52,50,62,48,1
1706,48.5099458694458,49,46,48,92,51,43,51,44,1
1707,48.52764701843262,49,47,51,81,52,45,50,46,1
1708,48.54818892478943,48,46,51,77,50,47,51,44,1
1709,48.569916009902954,44,42,48,79,55,51,54,44,1
1710,48.586777687072754,47,45,51,87,62,54,61,47,1
1711,48.608784675598145,49,45,48,81,61,55,64,45,1
1712,48.62966704368591,52,47,45,81,64,57,66,44,1
1713,48.6464102268219,55,52,50,84,73,60,71,47,1
1714,48.66974425315857,61,58,60,96,78,61,73,48,1
1715,48.689316272735596,51,51,52,87,71,52,62,40,1
1716,48.71323370933533,48,50,55,87,69,49,58,39,1
1717,48.72806000709534,51,50,57,89,67,48,59,39,1
1718,48.74991989135742,48,49,54,84,58,42,54,38,1
1719,48.76690626144409,51,50,49,79,52,43,56,38,1
1720,48.789812326431274,51,54,53,78,50,44,57,38,1
1721,48.80986666679382,57,57,53,76,57,52,65,43,1
1722,48.82626533508301,71,69,72,118,81,67,79,55,1
1723,48.84893035888672,76,71,78,130,88,69,82,56,1
1724,48.86971879005432,71,66,74,131,89,66,76,53,1
1725,48.89218521118164,75,69,78,138,92,67,81,59,1
1726,48.911367654800415,72,66,76,136,88,61,76,57,1
1727,48.92935609817505,54,52,60,107,65,44,58,45,1
1728,48.95232582092285,45,47,52,97,54,39,51,42,1
1729,48.968817710876465,50,52,61,103,56,41,56,50,1
1730,48.98943829536438,49,46,62,110,62,46,54,49,1
1731,49.012096643447876,48,45,62,107,61,46,53,47,1
1732,49.02889370918274,49,45,64,118,63,45,53,46,1
1733,49.0513756275177,51,44,63,120,63,48,55,48,1
1734,49.07231163978577,44,39,54,107,56,44,48,40,1
1735,49.08937072753906,35,32,42,99,40,33,36,32,1
1736,49.10971021652222,38,37,40,103,45,34,41,33,1
1737,49.13216781616211,39,37,32,89,48,39,43,33,1
1738,49.14882850646973,38,37,36,87,50,34,40,30,1
1739,49.16960287094116,39,39,40,92,50,34,43,33,1
1740,49.19150686264038,45,43,48,86,56,41,50,37,1
1741,49.20906352996826,47,42,51,87,58,45,49,38,1
1742,49.229889154434204,46,40,51,88,56,42,46,38,1
1743,49.25205421447754,46,39,50,90,63,50,54,42,1
1744,49.268887519836426,46,39,50,88,65,55,58,44,1
1745,49.28904318809509,46,37,42,97,63,53,55,42,1
1746,49.312299966812134,45,37,37,90,59,50,53,43,1
1747,49.32897067070007,50,41,41,82,60,52,56,43,1
1748,49.349831342697144,52,43,40,75,53,45,50,41,1
1749,49.37217330932617,49,38,33,80,51,39,42,38,1
1750,49.39057445526123,45,38,37,62,50,38,42,37,1
1751,49.41001033782959,48,40,39,71,54,39,47,36,1
1752,49.43339228630066,46,39,38,85,51,40,47,37,1
1753,49.44871926307678,44,36,36,84,48,40,49,34,1
1754,49.47122764587402,46,36,38,81,46,39,47,34,1
1755,49.492170095443726,49,39,41,86,46,37,48,32,1
1756,49.50881505012512,42,35,39,89,42,39,45,32,1
1757,49.52972722053528,40,35,41,78,45,37,46,32,1
1758,49.55296730995178,40,38,43,89,48,38,47,34,1
1759,49.569326877593994,38,38,45,88,49,38,46,34,1
1760,49.59020709991455,35,35,46,94,55,42,47,38,1
1761,49.612351417541504,45,45,55,97,65,45,54,42,1
1762,49.628756284713745,43,44,53,98,65,42,48,41,1
1763,49.649242877960205,44,43,53,104,62,40,47,39,1
1764,49.672513484954834,44,42,51,104,63,41,48,39,1
1765,49.68885111808777,43,42,49,97,58,38,44,35,1
1766,49.71141004562378,33,31,39,88,43,30,31,26,1
1767,49.732421875,46,40,48,109,52,43,48,34,1
1768,49.749263048172,44,40,49,94,56,46,48,35,1
1769,49.769787549972534,44,41,48,93,52,44,47,37,1
1770,49.792110204696655,46,44,49,98,56,48,54,40,1
1771,49.80886149406433,46,46,53,97,60,50,59,42,1
1772,49.830010175704956,35,41,48,73,49,40,48,34,1
1773,49.85216784477234,38,44,52,84,55,41,50,38,1
1774,49.87025213241577,40,45,55,86,58,41,51,38,1
1775,49.889315128326416,38,40,53,80,53,35,45,37,1
1776,49.92126965522766,53,50,59,91,64,44,50,42,1
1777,49.9290566444397,54,48,60,97,67,45,51,43,1
1778,49.94963979721069,52,46,59,96,63,42,49,41,1
1779,49.97261881828308,52,48,57,92,64,45,51,42,1
1780,49.994911909103394,59,54,60,101,73,54,60,46,1
1781,50.00964093208313,45,43,51,90,63,47,52,39,1
1782,50.03207516670227,44,44,46,89,61,48,52,38,1
1783,50.054739475250244,53,50,52,86,62,52,58,42,1
1784,50.07015585899353,54,48,52,87,63,54,58,42,1
1785,50.09160256385803,58,54,55,77,54,51,53,44,1
1786,50.116455078125,62,58,58,84,55,52,57,46,1
1787,50.12970995903015,63,60,60,94,54,50,57,48,1
1788,50.152428150177,59,55,53,90,51,50,53,44,1
1789,50.17494249343872,56,54,56,90,48,46,52,45,1
1790,50.18975210189819,44,40,49,87,47,40,46,36,1
1791,50.21221137046814,40,36,47,84,45,36,39,32,1
1792,50.23501133918762,34,31,45,70,44,37,40,33,1
1793,50.249733448028564,32,34,48,69,46,36,40,36,1
1794,50.27209830284119,33,33,43,66,45,33,38,34,1
1795,50.294702768325806,33,35,42,86,43,33,38,37,1
1796,50.3095428943634,28,32,42,87,40,34,38,36,1
1797,50.332189083099365,39,39,49,87,42,39,41,34,1
1798,50.354651927948,38,35,43,92,36,36,40,29,1
1799,50.369723081588745,37,38,46,97,38,41,45,32,1
1800,50.3920738697052,36,37,45,85,38,41,43,31,1
1801,50.414523124694824,38,38,43,82,42,41,44,33,1
1802,50.42966890335083,27,33,38,89,42,35,42,33,1
1803,50.452040672302246,29,34,39,85,47,38,43,34,1
1804,50.47415542602539,43,44,51,92,65,53,59,48,1
1805,50.489694118499756,45,47,53,98,68,56,63,50,1
1806,50.51210165023804,52,51,55,101,72,59,65,52,1
1807,50.53428363800049,58,53,58,94,76,62,69,59,1
1808,50.549221992492676,56,53,56,91,73,60,67,59,1
1809,50.57213592529297,50,48,50,79,58,45,53,51,1
1810,50.59541988372803,57,50,55,99,60,45,57,52,1
1811,50.60983872413635,51,47,54,100,54,43,58,49,1
1812,50.63302445411682,46,41,47,94,48,40,51,41,1
1813,50.65636610984802,48,46,50,96,52,44,55,41,1
1814,50.669530630111694,46,41,46,103,52,47,56,38,1
1815,50.691776752471924,36,39,44,91,45,44,49,37,1
1816,50.71430516242981,40,42,44,88,45,43,47,40,1
1817,50.72961950302124,41,43,47,96,46,44,47,39,1
1818,50.752180099487305,44,44,48,100,49,44,46,42,1
1819,50.774839878082275,49,50,54,110,56,45,48,43,1
1820,50.79116344451904,50,49,52,97,63,47,50,45,1
1821,50.812196016311646,48,46,53,97,62,46,49,42,1
1822,50.83460211753845,48,47,52,96,60,45,49,42,1
1823,50.849899768829346,51,47,54,94,57,46,58,41,1
1824,50.87204027175903,45,40,47,71,48,41,53,37,1
1825,50.89483594894409,46,39,47,84,44,40,54,31,1
1826,50.9170606136322,45,40,46,84,47,41,55,34,1
1827,50.93213701248169,46,39,45,88,50,46,60,36,1
1828,50.955626010894775,40,35,44,90,56,51,59,37,1
1829,50.97751212120056,40,36,43,95,56,51,59,38,1
1830,50.99363851547241,39,39,45,80,52,49,54,37,1
1831,51.014819860458374,57,52,55,93,66,62,66,47,1
1832,51.03724145889282,56,51,54,101,65,58,63,48,1
1833,51.052037477493286,58,55,61,115,66,52,58,48,1
1834,51.07492995262146,65,61,65,119,75,58,65,53,1
1835,51.09718871116638,68,63,65,134,80,60,68,57,1
1836,51.11267900466919,54,51,55,125,69,47,54,48,1
1837,51.135045766830444,68,64,66,124,89,66,71,59,1
1838,51.15681266784668,70,63,61,116,89,70,75,60,1
1839,51.17987036705017,63,56,61,106,82,65,69,55,1
1840,51.194698333740234,62,55,62,86,78,63,66,55,1
1841,51.225261211395264,66,59,67,91,83,68,72,60,1
1842,51.23211050033569,52,47,57,79,63,51,54,48,1
1843,51.25457191467285,55,48,62,77,73,56,62,55,1
1844,51.277331590652466,67,61,70,88,90,68,78,67,1
1845,51.29291296005249,66,60,68,91,92,72,80,66,1
1846,51.31460452079773,68,61,70,97,89,69,80,62,1
1847,51.337103605270386,74,64,73,98,93,74,88,66,1
1848,51.354440689086914,75,64,68,94,89,74,85,61,1
1849,51.374598026275635,64,52,54,84,72,63,71,48,1
1850,51.39726400375366,63,53,58,86,73,61,70,48,1
1851,51.41229224205017,57,46,52,70,73,61,68,48,1
1852,51.435150146484375,49,40,47,64,63,52,56,42,1
1853,51.45756149291992,46,38,46,77,53,41,51,40,1
1854,51.47203755378723,52,46,52,90,58,45,58,45,1
1855,51.49417448043823,56,47,49,88,58,48,63,46,1
1856,51.51766514778137,55,49,47,90,58,49,61,45,1
1857,51.53216624259949,60,54,53,123,65,56,67,50,1
1858,51.55472540855408,59,56,56,121,64,56,64,51,1
1859,51.57720065116882,59,57,61,116,62,58,64,50,1
1860,51.592039823532104,57,54,58,122,55,55,59,47,1
1861,51.61470985412598,58,55,60,124,52,52,58,47,1
1862,51.637112855911255,60,57,63,100,57,55,62,49,1
1863,51.652371644973755,60,54,63,110,61,55,63,49,1
1864,51.67478799819946,57,47,54,109,62,53,60,45,1
1865,51.69714665412903,56,51,58,102,64,53,62,44,1
1866,51.71209359169006,54,49,55,103,63,52,60,43,1
1867,51.73470425605774,49,43,49,101,58,48,57,38,1
1868,51.757575035095215,43,39,42,79,51,47,54,33,1
1869,51.77208161354065,41,40,48,78,48,46,54,33,1
1870,51.79507565498352,39,37,46,97,47,46,50,33,1
1871,51.81722021102905,40,36,46,91,47,46,52,32,1
1872,51.83976411819458,34,30,41,83,45,41,41,28,1
1873,51.85468769073486,38,37,50,88,50,43,45,33,1
1874,51.87664985656738,36,36,43,83,45,39,39,32,1
1875,51.8995885848999,36,33,38,73,46,38,42,35,1
1876,51.91484045982361,34,34,39,79,47,37,41,37,1
1877,51.93709373474121,34,33,39,76,42,36,41,36,1
1878,51.95978760719299,30,27,34,86,49,39,45,37,1
1879,51.974613189697266,30,32,40,106,53,40,47,38,1
1880,51.9967200756073,35,34,46,100,54,42,49,37,1
1881,52.019416093826294,39,37,51,103,57,46,55,42,1
1882,52.035179138183594,43,44,54,113,61,48,59,45,1
1883,52.057329416275024,41,40,49,105,55,45,52,41,1
1884,52.07969617843628,43,42,46,90,56,45,54,43,1
1885,52.0946524143219,40,42,43,97,56,43,54,45,1
1886,52.11696004867554,36,40,40,91,51,39,49,40,1
1887,52.139607191085815,41,41,42,81,54,47,57,43,1
1888,52.15464496612549,41,43,42,78,55,49,62,47,1
1889,52.177085638046265,50,48,49,88,61,52,64,52,1
1890,52.19973850250244,54,48,50,78,66,55,65,49,1
1891,52.214749336242676,53,47,48,78,66,56,64,48,1
1892,52.237154960632324,51,46,46,77,67,55,61,47,1
1893,52.25977611541748,50,45,47,81,62,51,57,45,1
1894,52.278804302215576,41,35,37,87,51,47,51,36,1
1895,52.29700231552124,41,37,44,103,48,46,52,40,1
1896,52.319860219955444,52,47,51,106,53,48,57,44,1
1897,52.334707498550415,51,44,53,113,45,39,50,40,1
1898,52.35795974731445,51,43,53,114,44,39,48,39,1
1899,52.37963819503784,53,45,56,101,50,47,54,39,1
1900,52.39523720741272,51,43,47,84,45,45,51,34,1
1901,52.41723895072937,41,33,45,82,43,45,48,29,1
1902,52.439725160598755,40,35,43,79,47,45,47,29,1
1903,52.4547553062439,42,38,44,77,53,48,50,31,1
1904,52.477142095565796,41,38,39,75,49,43,44,33,1
1905,52.499642848968506,37,35,40,81,48,41,42,34,1
1906,52.515413761138916,42,40,39,86,55,46,49,36,1
1907,52.53711676597595,40,37,39,80,57,48,54,37,1
1908,52.559640884399414,40,37,41,89,53,45,54,37,1
1909,52.57465362548828,39,38,44,94,55,45,55,34,1
1910,52.59735631942749,50,44,48,92,62,53,61,37,1
1911,52.619786977767944,49,45,46,97,57,49,56,39,1
1912,52.63480281829834,52,46,45,97,54,48,54,40,1
1913,52.657286405563354,59,52,49,87,67,56,55,46,1
1914,52.679747104644775,58,50,46,81,64,54,53,45,1
1915,52.69466018676758,50,46,43,82,61,46,48,43,1
1916,52.7173388004303,51,44,45,94,71,53,51,46,1
1917,52.73957324028015,48,42,45,100,71,52,46,42,1
1918,52.754443645477295,41,34,39,95,59,42,43,34,1
1919,52.77697205543518,42,38,41,100,63,46,48,39,1
1920,52.800111293792725,44,37,43,103,62,45,47,42,1
1921,52.82235908508301,39,32,39,79,45,37,42,34,1
1922,52.83872723579407,39,34,37,81,43,40,51,37,1
1923,52.85981798171997,38,35,37,86,45,41,52,38,1
1924,52.88218450546265,39,36,40,93,44,41,52,41,1
1925,52.897136211395264,40,37,39,84,46,45,56,39,1
1926,52.92007565498352,40,37,39,99,49,46,57,42,1
1927,52.94196391105652,42,40,50,99,51,46,55,44,1
1928,52.95719337463379,44,45,56,102,53,47,55,48,1
1929,52.97962522506714,42,42,55,92,52,46,51,45,1
1930,53.002445936203,40,43,53,101,48,43,48,43,1
1931,53.017215728759766,41,46,58,94,51,44,48,44,1
1932,53.039623498916626,38,41,49,91,47,43,45,42,1
1933,53.061806440353394,32,32,41,89,42,40,42,36,1
1934,53.07776761054993,40,38,44,99,47,45,47,37,1
1935,53.09971523284912,41,38,47,97,51,44,45,38,1
1936,53.122262477874756,42,37,43,106,50,42,42,35,1
1937,53.137038469314575,42,40,45,103,49,41,44,32,1
1938,53.15964126586914,41,40,47,100,48,40,42,32,1
1939,53.18222999572754,32,33,39,89,41,32,36,29,1
1940,53.19887566566467,34,35,40,86,40,34,41,29,1
1941,53.21960735321045,33,34,35,73,37,31,41,28,1
1942,53.25086975097656,30,29,32,67,36,30,37,28,1
1943,53.257216453552246,31,31,33,80,39,36,40,28,1
1944,53.27971625328064,37,37,40,85,48,43,47,33,1
1945,53.301692724227905,33,33,39,83,51,44,44,33,1
1946,53.31675314903259,33,32,39,74,50,45,42,33,1
1947,53.339789390563965,39,37,41,77,55,48,49,36,1
1948,53.36218810081482,38,35,39,72,52,43,46,37,1
1949,53.37709879875183,36,31,36,73,44,39,42,33,1
1950,53.399627685546875,38,35,39,77,43,42,48,36,1
1951,53.42240500450134,40,35,43,78,44,44,49,38,1
1952,53.43711042404175,40,33,41,83,41,44,45,35,1
1953,53.459749937057495,44,38,41,86,48,50,54,38,1
1954,53.48218584060669,50,45,47,90,61,52,57,40,1
1955,53.49705481529236,53,44,47,104,63,48,54,38,1
1956,53.51975631713867,54,45,46,107,65,48,55,35,1
1957,53.542465925216675,51,48,51,103,67,46,57,39,1
1958,53.55662679672241,52,49,55,103,65,42,52,37,1
1959,53.581093311309814,44,43,49,99,56,39,49,34,1
1960,53.60206460952759,40,44,50,94,57,41,48,35,1
1961,53.617135524749756,42,44,54,98,58,43,48,37,1
1962,53.63917827606201,41,41,51,101,57,46,44,34,1
1963,53.66276216506958,37,37,48,96,57,45,42,37,1
1964,53.676737785339355,38,34,46,99,53,43,39,35,1
1965,53.70724391937256,45,37,50,88,51,48,52,38,1
1966,53.7222216129303,43,39,48,84,49,46,54,37,1
1967,53.74572420120239,41,36,45,79,47,47,54,39,1
1968,53.759626150131226,45,39,51,104,52,49,59,40,1
1969,53.78225064277649,47,42,52,110,55,52,62,44,1
1970,53.805312395095825,41,40,51,114,50,45,52,41,1
1971,53.81958484649658,39,35,50,116,48,44,48,42,1
1972,53.84218668937683,42,39,52,121,50,45,51,46,1
1973,53.86541795730591,35,35,44,96,42,41,42,43,1
1974,53.87974452972412,41,39,47,78,44,42,45,42,1
1975,53.91043138504028,39,37,44,74,42,42,43,40,1
1976,53.925270080566406,40,38,42,69,43,45,48,40,1
1977,53.93962025642395,39,37,44,71,45,42,47,39,1
1978,53.96220541000366,41,38,44,72,47,44,49,38,1
1979,53.985238552093506,32,32,40,89,43,40,45,36,1
1980,53.999635219573975,32,33,36,90,44,41,47,37,1
1981,54.02208495140076,29,33,34,96,40,37,42,33,1
1982,54.04553961753845,26,30,27,90,33,34,38,30,1
1983,54.059754848480225,27,32,30,90,35,33,40,30,1
1984,54.082218408584595,28,33,39,93,45,37,42,31,1
1985,54.10476326942444,24,29,39,101,43,32,37,32,1
1986,54.119709968566895,27,29,43,97,45,31,36,33,1
1987,54.142497301101685,34,30,47,169,61,40,36,33,1
1988,54.16521692276001,44,37,52,184,65,45,46,42,1
1989,54.17964816093445,47,39,52,192,64,44,44,40,1
1990,54.20219922065735,67,51,52,195,85,55,54,42,1
1991,54.2256281375885,78,62,50,209,89,68,69,42,1
1992,54.23957276344299,81,73,66,189,110,78,76,45,1
1993,54.26201343536377,85,82,73,179,159,96,78,43,1
1994,54.285523891448975,89,88,72,163,168,107,85,49,1
1995,54.30192160606384,81,89,82,183,191,124,85,52,1
1996,54.32209515571594,90,104,88,188,253,175,114,70,1
1997,54.34559488296509,106,114,83,163,285,196,138,75,1
1998,54.359662771224976,104,114,84,177,281,195,141,73,1
1999,54.38246750831604,108,114,82,179,280,191,139,70,1
2000,54.40525841712952,106,111,74,181,282,188,136,69,1
2001,54.41962146759033,96,99,70,175,231,141,111,53,1
2002,54.442099809646606,79,86,67,183,192,111,84,43,1
2003,54.46532607078552,77,77,55,178,165,104,76,42,1
2004,54.479690074920654,67,72,62,193,166,105,75,43,1
2005,54.50305652618408,72,78,71,178,158,101,83,40,1
2006,54.52503943443298,69,68,69,163,168,101,84,42,1
2007,54.55711007118225,62,58,63,152,157,96,81,44,1
2008,54.576788902282715,60,55,66,149,153,93,82,54,1
2009,54.59219741821289,64,61,61,137,147,89,80,69,1
2010,54.607319593429565,64,57,53,128,118,83,81,76,1
2011,54.6296751499176,60,58,52,132,103,85,73,80,1
2012,54.64468312263489,65,62,62,126,93,78,68,79,1
2013,54.65965938568115,63,62,60,116,98,76,62,73,1
2014,54.682512521743774,66,68,65,113,112,86,71,65,1
2015,54.70471119880676,80,88,73,129,127,90,83,62,1
2016,54.72712707519531,83,90,76,144,124,81,84,57,1
2017,54.742793560028076,81,87,70,150,126,81,84,56,1
2018,54.764564514160156,82,88,71,168,123,87,93,56,1
2019,54.78709268569946,75,80,71,168,119,85,88,54,1
2020,54.80214166641235,72,73,72,154,97,71,76,52,1
2021,54.83273959159851,72,74,71,135,101,77,79,64,1
2022,54.84724760055542,74,77,69,140,102,81,81,64,1
2023,54.86419939994812,72,75,73,148,106,74,69,62,1
2024,54.885260820388794,72,73,69,164,95,62,68,60,1
2025,54.90781211853027,52,52,58,169,90,64,59,57,1
2026,54.92228865623474,45,45,54,173,80,57,52,40,1
2027,54.94555997848511,46,41,63,192,87,62,58,39,1
2028,54.9678521156311,54,44,58,179,84,65,66,40,1
2029,55.84416484832764,41,39,55,136,70,34,43,32,2
2030,55.86737084388733,38,35,56,126,64,30,40,33,2
2031,55.8902153968811,33,32,60,137,66,30,36,30,2
2032,55.90441584587097,29,36,72,158,73,29,34,32,2
2033,55.92812466621399,25,32,66,154,70,29,28,30,2
2034,55.951964139938354,23,32,62,146,61,29,27,30,2
2035,55.96473813056946,22,33,61,144,59,28,27,28,2
2036,55.987998723983765,24,36,58,134,61,32,33,33,2
2037,56.010196924209595,25,35,49,126,62,34,31,35,2
2038,56.02481818199158,24,32,49,117,58,33,31,32,2
2039,56.04776406288147,25,33,50,111,58,34,31,32,2
2040,56.07035708427429,28,33,52,120,59,38,35,36,2
2041,56.08466553688049,31,32,56,130,57,44,39,32,2
2042,56.10792016983032,30,29,47,100,46,42,39,29,2
2043,56.13046956062317,32,30,45,97,46,42,40,30,2
2044,56.1448974609375,34,33,46,102,50,46,44,32,2
2045,56.168020486831665,36,35,50,130,66,47,46,30,2
2046,56.1906635761261,31,34,52,130,64,39,37,30,2
2047,56.20427107810974,30,34,52,128,64,38,37,29,2
2048,56.22785830497742,31,37,51,129,66,42,40,29,2
2049,56.24975609779358,31,35,49,120,61,38,37,29,2
2050,56.26465463638306,25,30,42,77,41,33,33,29,2
2051,56.287429094314575,31,42,59,94,60,40,45,37,2
2052,56.30991530418396,32,41,59,97,61,40,45,40,2
2053,56.324824810028076,31,40,60,104,61,45,44,41,2
2054,56.34804081916809,31,39,59,108,61,44,41,40,2
2055,56.37028980255127,35,45,61,108,64,46,48,43,2
2056,56.38465452194214,30,35,37,73,42,40,38,35,2
2057,56.407856464385986,28,33,36,74,38,41,38,31,2
2058,56.43030023574829,29,33,37,64,35,32,37,31,2
2059,56.45281386375427,27,33,39,59,35,33,37,31,2
2060,56.46846675872803,25,25,35,57,32,28,29,27,2
2061,56.490660667419434,25,26,36,56,38,32,30,29,2
2062,56.50459170341492,27,27,35,51,40,31,31,31,2
2063,56.527650356292725,23,24,33,56,39,31,31,29,2
2064,56.550294160842896,26,28,41,63,40,30,32,31,2
2065,56.564841985702515,27,28,44,68,42,36,33,30,2
2066,56.58784198760986,31,34,57,81,45,35,39,30,2
2067,56.61035227775574,37,44,72,124,61,41,48,31,2
2068,56.633023738861084,43,51,79,138,79,52,58,37,2
2069,56.64787411689758,43,49,76,136,80,52,59,37,2
2070,56.670416831970215,42,50,78,136,79,49,58,38,2
2071,56.69237971305847,39,47,69,129,75,46,54,36,2
2072,56.70721673965454,34,38,53,93,62,40,44,32,2
2073,56.7308464050293,27,30,47,69,38,29,30,29,2
2074,56.75266432762146,26,28,47,70,36,29,28,26,2
2075,56.76767349243164,28,30,45,80,40,33,35,32,2
2076,56.79019522666931,31,30,45,81,40,35,38,34,2
2077,56.81311225891113,29,31,43,74,40,36,37,34,2
2078,56.827932357788086,28,29,39,75,44,36,37,32,2
2079,56.850165128707886,30,31,38,85,46,37,36,32,2
2080,56.873066902160645,28,29,37,96,41,32,29,27,2
2081,56.888057231903076,26,30,37,97,43,31,25,25,2
2082,56.91030406951904,27,31,39,99,40,30,27,25,2
2083,56.93275165557861,26,31,36,95,36,27,27,24,2
2084,56.94794178009033,26,31,49,113,43,26,32,26,2
2085,56.97064542770386,25,29,48,101,42,27,32,25,2
2086,56.99250531196594,24,25,47,98,41,27,33,24,2
2087,57.00737452507019,29,31,53,102,44,31,37,27,2
2088,57.0381863117218,33,36,53,99,44,33,39,29,2
2089,57.05281043052673,31,37,60,111,37,31,36,29,2
2090,57.06714057922363,32,37,62,114,35,30,37,28,2
2091,57.08973836898804,33,38,62,113,35,33,35,30,2
2092,57.11319971084595,29,35,58,112,35,45,39,28,2
2093,57.126917600631714,29,31,58,113,36,47,40,25,2
2094,57.149924516677856,28,28,38,70,33,47,38,23,2
2095,57.174108266830444,25,29,32,58,36,48,39,25,2
2096,57.18721652030945,23,28,55,100,39,47,39,26,2
2097,57.21071529388428,27,27,60,106,42,38,33,28,2
2098,57.232826471328735,25,25,60,106,41,33,29,29,2
2099,57.24718499183655,26,27,61,106,41,32,30,29,2
2100,57.270737409591675,28,28,64,105,41,32,32,28,2
2101,57.29285168647766,28,28,57,92,44,34,33,28,2
2102,57.30705809593201,24,24,52,84,39,27,27,24,2
2103,57.33062195777893,23,24,52,85,37,28,30,24,2
2104,57.352733850479126,23,22,52,90,39,29,29,24,2
2105,57.375741481781006,22,21,48,93,37,28,28,25,2
2106,57.39032793045044,28,28,42,76,36,25,29,26,2
2107,57.41382813453674,28,28,38,75,35,25,28,26,2
2108,57.42750406265259,27,28,38,72,35,25,28,28,2
2109,57.45053005218506,29,30,44,83,36,24,29,30,2
2110,57.472763776779175,29,29,45,81,39,30,29,28,2
2111,57.487733364105225,25,24,41,73,31,29,27,26,2
2112,57.51023602485657,25,27,48,75,32,30,27,29,2
2113,57.53276824951172,25,27,48,75,34,29,26,28,2
2114,57.55528140068054,27,26,41,58,35,30,28,26,2
2115,57.57029700279236,27,26,42,60,35,24,26,27,2
2116,57.5931613445282,26,25,41,67,39,29,31,28,2
2117,57.6153085231781,27,24,33,70,43,31,34,26,2
2118,57.63047742843628,32,30,36,78,49,34,38,27,2
2119,57.65272927284241,31,32,43,86,51,38,40,29,2
2120,57.67555284500122,32,33,46,95,53,41,41,28,2
2121,57.6904194355011,32,35,49,101,51,38,38,27,2
2122,57.71279191970825,31,39,54,101,52,39,40,28,2
2123,57.735549449920654,26,35,53,106,50,36,36,25,2
2124,57.75072932243347,23,32,47,100,48,31,32,23,2
2125,57.77272582054138,22,32,45,100,47,31,31,26,2
2126,57.795804023742676,28,30,41,99,49,31,31,27,2
2127,57.81037735939026,34,29,39,100,45,29,28,28,2
2128,57.833049058914185,37,32,46,90,42,32,32,33,2
2129,57.85537123680115,39,32,47,90,40,33,32,33,2
2130,57.87029814720154,38,33,46,79,40,31,33,31,2
2131,57.892292737960815,35,34,47,71,41,33,36,32,2
2132,57.91583514213562,28,31,45,71,40,32,34,30,2
2133,57.93056058883667,23,28,38,76,40,29,29,26,2
2134,57.952500343322754,22,29,38,73,41,29,29,26,2
2135,57.97583365440369,25,28,42,77,42,29,28,26,2
2136,57.98968529701233,23,24,36,72,38,24,20,24,2
2137,58.013022899627686,24,31,43,76,41,27,26,25,2
2138,58.03541970252991,23,31,42,90,47,28,27,24,2
2139,58.05022978782654,24,31,41,92,46,28,29,23,2
2140,58.07320594787598,22,35,39,92,44,27,32,24,2
2141,58.095295667648315,23,35,41,103,46,28,32,25,2
2142,58.10967206954956,24,29,32,100,44,29,33,25,2
2143,58.13276767730713,25,28,32,83,37,30,32,25,2
2144,58.15526556968689,25,28,40,93,42,30,34,27,2
2145,58.16958403587341,27,23,38,88,38,31,34,26,2
2146,58.193039894104004,27,24,42,85,38,31,35,27,2
2147,58.215386629104614,28,26,43,87,40,29,31,29,2
2148,58.23015737533569,30,29,44,85,39,25,30,31,2
2149,58.252830028533936,30,28,39,69,33,26,29,29,2
2150,58.27528977394104,31,30,39,70,35,28,29,31,2
2151,58.289570331573486,30,28,44,75,37,27,28,29,2
2152,58.31302094459534,29,26,45,79,32,27,28,27,2
2153,58.33561968803406,28,28,45,79,33,31,31,27,2
2154,58.35096049308777,27,26,44,79,34,30,29,29,2
2155,58.372695207595825,24,26,43,82,33,26,27,30,2
2156,58.395259141922,27,28,43,77,30,29,28,30,2
2157,58.40959692001343,27,30,47,78,31,29,28,28,2
2158,58.43279409408569,28,27,47,78,36,32,31,28,2
2159,58.4555242061615,29,29,49,83,40,33,33,26,2
2160,58.46966576576233,29,26,51,83,41,35,32,25,2
2161,58.49288010597229,28,26,42,73,41,33,34,26,2
2162,58.514692544937134,25,24,36,69,45,36,34,27,2
2163,58.53805494308472,21,24,37,72,42,31,31,27,2
2164,58.554765939712524,21,23,35,66,38,34,31,28,2
2165,58.57465195655823,21,25,36,61,36,33,31,30,2
2166,58.59721612930298,21,25,37,66,37,33,30,28,2
2167,58.614750623703,25,32,39,63,37,38,38,29,2
2168,58.634679079055786,26,32,38,60,36,39,38,29,2
2169,58.65695333480835,26,31,40,65,38,38,38,28,2
2170,58.67420506477356,25,33,47,71,40,36,39,25,2
2171,58.69479179382324,25,33,45,73,42,38,37,25,2
2172,58.71742582321167,23,29,42,70,39,32,30,25,2
2173,58.73364305496216,23,28,41,71,39,30,29,24,2
2174,58.75458788871765,22,26,37,67,39,27,28,25,2
2175,58.77695107460022,24,26,31,64,42,31,32,25,2
2176,58.79382252693176,26,27,36,57,42,29,30,25,2
2177,58.8145809173584,24,22,36,57,37,28,28,25,2
2178,58.83704614639282,27,24,40,67,42,30,28,26,2
2179,58.85400581359863,30,28,45,78,43,32,32,25,2
2180,58.87500476837158,28,26,43,77,39,29,30,24,2
2181,58.8973331451416,27,25,41,81,37,27,30,26,2
2182,58.914249897003174,27,28,43,86,42,29,32,28,2
2183,58.93487620353699,27,28,39,77,37,31,33,27,2
2184,58.957316160202026,27,29,39,75,37,30,32,29,2
2185,58.97401523590088,28,30,40,75,39,31,29,29,2
2186,58.99423098564148,28,32,40,69,38,33,32,29,2
2187,59.01707482337952,33,36,44,70,38,35,37,30,2
2188,59.034384965896606,34,37,48,72,41,36,39,33,2
2189,59.05423617362976,32,34,48,69,41,35,39,34,2
2190,59.07653093338013,30,33,46,67,37,34,39,36,2
2191,59.09465718269348,35,33,46,63,39,35,41,35,2
2192,59.11468958854675,30,29,40,55,37,32,36,34,2
2193,59.137078523635864,27,25,36,54,35,27,34,32,2
2194,59.15324926376343,28,24,32,57,41,30,31,29,2
2195,59.175052642822266,28,24,35,61,40,29,30,27,2
2196,59.19705557823181,26,27,37,64,40,31,28,28,2
2197,59.21376633644104,31,34,39,69,43,38,41,27,2
2198,59.23478126525879,32,36,37,74,46,39,42,26,2
2199,59.25922775268555,33,37,38,78,47,42,44,28,2
2200,59.27387309074402,34,37,34,80,48,41,44,29,2
2201,59.29602932929993,31,35,40,88,47,39,42,28,2
2202,59.317448139190674,28,30,37,92,47,34,33,28,2
2203,59.334808349609375,26,28,38,90,44,33,34,30,2
2204,59.354520320892334,24,27,36,80,37,27,31,27,2
2205,59.37729620933533,24,29,40,74,38,30,33,26,2
2206,59.393975019454956,29,28,30,64,41,32,35,26,2
2207,59.4148154258728,26,25,28,65,43,32,34,23,2
2208,59.43730306625366,25,25,28,62,42,32,32,21,2
2209,59.45954084396362,25,25,27,62,41,32,32,20,2
2210,59.475019693374634,30,25,28,63,45,36,33,24,2
2211,59.497525453567505,26,23,30,61,43,38,31,25,2
2212,59.51960229873657,26,23,32,60,37,36,29,25,2
2213,59.53644680976868,27,24,32,59,38,36,30,27,2
2214,59.55708861351013,29,28,45,73,39,38,33,30,2
2215,59.57960081100464,21,26,41,73,33,34,29,26,2
2216,59.59629464149475,22,27,41,77,30,29,28,27,2
2217,59.61705446243286,25,29,46,80,31,32,29,29,2
2218,59.63967204093933,24,27,46,82,30,30,27,28,2
2219,59.65655183792114,24,24,36,72,29,27,23,26,2
2220,59.67720055580139,36,34,41,78,32,31,37,31,2
2221,59.69964838027954,36,34,41,80,36,32,38,30,2
2222,59.71715950965881,36,32,34,66,33,29,36,30,2
2223,59.73707723617554,37,32,34,65,31,30,36,29,2
2224,59.75968837738037,40,40,41,74,40,37,46,33,2
2225,59.77637553215027,33,33,37,85,47,36,38,30,2
2226,59.79769277572632,32,34,40,83,44,36,37,30,2
2227,59.8197124004364,36,38,41,87,52,38,40,32,2
2228,59.83648061752319,36,39,46,91,55,36,42,35,2
2229,59.857210636138916,31,31,43,88,55,31,37,32,2
2230,59.88008451461792,30,30,45,80,49,27,34,32,2
2231,59.897284746170044,30,29,43,76,50,27,37,31,2
2232,59.917243003845215,23,25,43,69,42,24,35,27,2
2233,59.93971014022827,22,25,40,72,41,25,36,26,2
2234,59.95546007156372,24,26,38,69,41,29,35,28,2
2235,59.97712802886963,23,26,36,62,42,30,35,28,2
2236,59.999611616134644,25,30,37,67,47,30,34,34,2
2237,60.016353368759155,28,29,41,74,50,30,35,34,2
2238,60.03737759590149,30,29,42,70,48,32,32,33,2
2239,60.0611617565155,29,27,44,77,47,28,28,32,2
2240,60.07662796974182,32,32,47,83,51,30,33,35,2
2241,60.09720540046692,32,34,48,80,50,32,36,30,2
2242,60.12149620056152,28,32,43,77,46,32,33,29,2
2243,60.13650727272034,28,33,40,74,46,31,33,30,2
2244,60.157092809677124,28,35,43,74,44,30,33,30,2
2245,60.18237853050232,26,33,43,70,36,28,28,27,2
2246,60.19689750671387,26,30,39,71,34,29,30,27,2
2247,60.217302322387695,29,33,44,77,41,34,38,33,2
2248,60.23927021026611,28,30,44,79,43,33,37,31,2
2249,60.25655508041382,27,30,36,68,39,33,38,30,2
2250,60.27703619003296,28,28,35,80,41,33,40,29,2
2251,60.29953908920288,31,32,45,86,45,35,45,35,2
2252,60.31633639335632,29,29,42,78,39,30,40,31,2
2253,60.337281227111816,32,34,43,77,39,31,43,34,2
2254,60.35951232910156,31,33,44,77,41,31,42,34,2
2255,60.37669324874878,30,31,41,64,40,30,40,34,2
2256,60.39713191986084,27,26,41,61,33,24,31,31,2
2257,60.420817852020264,31,29,50,71,38,24,31,31,2
2258,60.442275047302246,33,30,54,76,41,26,30,32,2
2259,60.46480751037598,34,32,56,81,41,25,31,32,2
2260,60.480024576187134,34,33,58,94,44,24,30,33,2
2261,60.502174854278564,34,37,54,100,48,27,31,30,2
2262,60.5177047252655,30,34,44,100,44,26,29,27,2
2263,60.539947271347046,25,35,39,95,40,23,29,25,2
2264,60.56174921989441,23,36,41,105,47,27,29,27,2
2265,60.577051401138306,27,38,42,93,44,31,32,24,2
2266,60.5999481678009,28,35,43,95,42,29,29,26,2
2267,60.6219961643219,30,38,57,109,49,30,30,27,2
2268,60.63701343536377,32,36,57,116,50,37,35,29,2
2269,60.662049770355225,35,36,56,105,47,37,36,29,2
2270,60.69086289405823,36,35,55,105,49,35,36,32,2
2271,60.69729709625244,40,42,66,124,53,36,40,35,2
2272,60.72021746635437,41,40,59,117,53,36,41,34,2
2273,60.742063760757446,39,38,59,109,53,31,37,34,2
2274,60.757131814956665,41,40,61,108,54,32,40,34,2
2275,60.779577016830444,38,38,61,111,52,32,38,32,2
2276,60.802194595336914,35,33,54,89,50,31,37,33,2
2277,60.816951751708984,35,36,54,93,47,31,36,33,2
2278,60.839513540267944,37,44,57,94,50,39,45,33,2
2279,60.861650466918945,37,45,60,97,51,39,46,34,2
2280,60.878962993621826,38,46,60,96,49,40,46,34,2
2281,60.89963102340698,46,55,63,92,56,50,56,36,2
2282,60.92217230796814,46,55,63,80,57,51,57,37,2
2283,60.93707323074341,47,50,63,93,57,46,51,36,2
2284,60.95959973335266,49,50,58,99,54,46,50,35,2
2285,60.982086420059204,50,50,59,99,56,51,54,36,2
2286,60.99717593193054,42,37,47,90,44,42,42,29,2
2287,61.01971650123596,41,35,43,96,42,43,42,30,2
2288,61.04196858406067,39,33,38,91,34,41,40,29,2
2289,61.05698013305664,39,31,39,80,39,44,41,34,2
2290,61.07970690727234,36,29,38,85,42,35,33,34,2
2291,61.101760387420654,34,29,38,93,43,33,32,33,2
2292,61.11722445487976,36,31,42,91,44,35,31,36,2
2293,61.139734983444214,35,30,41,82,44,36,33,35,2
2294,61.16221356391907,31,34,53,98,48,30,35,34,2
2295,61.17721486091614,35,37,54,99,47,33,40,34,2
2296,61.19962000846863,36,38,56,99,49,35,43,34,2
2297,61.22321081161499,33,36,51,94,47,32,40,30,2
2298,61.23706388473511,33,36,51,101,47,31,39,31,2
2299,61.25972843170166,29,29,40,88,37,29,32,27,2
2300,61.282134771347046,26,29,46,89,39,32,29,30,2
2301,61.297539472579956,29,28,48,89,38,29,25,29,2
2302,61.31977915763855,29,28,48,90,38,28,25,28,2
2303,61.34251070022583,38,34,55,83,41,34,36,32,2
2304,61.36467957496643,38,33,51,81,42,35,36,32,2
2305,61.37951874732971,37,29,45,74,36,29,33,29,2
2306,61.40215992927551,34,29,48,73,38,31,35,31,2
2307,61.42452955245972,40,35,55,89,49,35,39,31,2
2308,61.44041609764099,33,29,52,93,44,30,30,26,2
2309,61.461915731430054,33,31,53,98,44,30,31,25,2
2310,61.484609603881836,35,34,55,102,48,41,38,33,2
2311,61.50018095970154,37,35,50,101,45,40,41,33,2
2312,61.5215117931366,29,28,43,84,33,37,38,34,2
2313,61.54455780982971,27,30,49,113,44,39,39,35,2
2314,61.56000804901123,27,30,49,110,43,38,37,37,2
2315,61.581727504730225,29,27,47,102,38,29,37,31,2
2316,61.60406184196472,31,31,54,117,41,30,33,32,2
2317,61.61955499649048,31,30,54,120,42,29,32,30,2
2318,61.64220690727234,34,32,49,94,39,31,37,35,2
2319,61.664572954177856,37,34,51,99,42,35,41,35,2
2320,61.67956900596619,36,34,55,110,42,34,37,35,2
2321,61.7021484375,31,31,46,90,40,30,36,33,2
2322,61.72458362579346,32,31,45,89,39,33,37,33,2
2323,61.73963737487793,30,27,41,87,33,28,31,27,2
2324,61.762155532836914,25,24,44,90,31,39,35,25,2
2325,61.784574031829834,23,22,37,75,29,39,34,26,2
2326,61.799530267715454,28,27,40,78,39,45,39,28,2
2327,61.82230043411255,30,30,51,96,43,45,40,29,2
2328,61.84449315071106,29,30,54,108,48,46,39,28,2
2329,61.85953998565674,31,31,52,113,54,37,34,29,2
2330,61.882347106933594,41,40,55,119,62,41,47,38,2
2331,61.90459752082825,43,42,60,126,58,36,48,35,2
2332,61.91963529586792,43,39,52,116,55,34,46,36,2
2333,61.94426512718201,43,39,51,105,52,33,46,37,2
2334,61.96479368209839,41,40,52,97,48,31,45,36,2
2335,61.97976851463318,32,32,51,95,42,24,31,26,2
2336,62.002108335494995,26,29,43,80,37,24,25,26,2
2337,62.02453875541687,25,29,45,92,40,24,26,24,2
2338,62.03941869735718,34,41,58,111,47,31,34,29,2
2339,62.06197428703308,35,41,58,106,47,33,37,29,2
2340,62.09319186210632,35,40,56,108,46,32,37,28,2
2341,62.099189043045044,36,37,56,109,46,32,36,29,2
2342,62.122315406799316,34,38,56,95,45,33,38,32,2
2343,62.144702434539795,26,26,42,75,39,28,34,27,2
2344,62.1596474647522,22,21,37,89,43,26,30,26,2
2345,62.18223834037781,23,26,44,115,47,28,33,29,2
2346,62.204845905303955,23,26,43,116,48,29,36,30,2
2347,62.21978712081909,25,25,41,113,47,38,35,28,2
2348,62.241722106933594,24,28,45,120,44,40,35,29,2
2349,62.2648663520813,27,30,45,107,39,40,35,29,2
2350,62.28866791725159,26,26,37,70,30,41,34,27,2
2351,62.30990505218506,25,27,40,75,30,40,33,25,2
2352,62.32464146614075,28,30,45,85,39,37,36,28,2
2353,62.347094774246216,29,28,45,88,37,34,34,26,2
2354,62.36212134361267,25,27,45,92,37,32,32,27,2
2355,62.38473677635193,28,28,47,98,40,31,31,28,2
2356,62.40717816352844,29,29,46,97,39,30,32,30,2
2357,62.4222207069397,27,28,42,86,32,23,29,27,2
2358,62.44471502304077,25,26,44,111,40,24,27,27,2
2359,62.46709871292114,30,30,45,110,45,28,30,28,2
2360,62.48220634460449,29,29,46,111,44,28,29,26,2
2361,62.504810094833374,27,29,49,108,45,29,26,25,2
2362,62.52708172798157,26,28,51,119,44,29,23,25,2
2363,62.54196858406067,31,32,44,81,38,32,31,27,2
2364,62.564900159835815,28,30,47,100,33,28,31,29,2
2365,62.58734059333801,26,29,44,95,30,28,31,29,2
2366,62.60244965553284,38,38,44,100,39,35,41,36,2
2367,62.62459945678711,41,41,44,94,42,37,45,38,2
2368,62.64735269546509,39,39,49,112,49,34,40,37,2
2369,62.66233682632446,39,39,49,99,50,35,40,35,2
2370,62.68462419509888,41,40,52,101,51,35,39,36,2
2371,62.70717191696167,31,33,48,98,44,29,31,32,2
2372,62.72189736366272,29,34,49,95,49,31,32,32,2
2373,62.74480390548706,28,34,45,73,40,30,33,31,2
2374,62.76709747314453,28,33,41,63,38,29,33,33,2
2375,62.78238344192505,25,33,37,54,38,29,34,32,2
2376,62.80475187301636,28,30,40,75,45,30,33,27,2
2377,62.827250719070435,27,22,41,93,36,26,26,25,2
2378,62.842089891433716,27,22,43,104,44,27,28,26,2
2379,62.86476802825928,25,23,49,110,48,27,28,21,2
2380,62.88881063461304,26,24,49,114,52,30,31,20,2
2381,62.902010679244995,24,26,47,102,48,28,29,24,2
2382,62.926164865493774,21,26,48,93,49,29,31,28,2
2383,62.94716429710388,24,27,45,89,46,29,29,27,2
2384,62.962286949157715,25,27,42,87,41,29,30,27,2
2385,62.98466682434082,26,24,42,82,38,29,29,27,2
2386,63.007781744003296,25,24,54,101,39,27,29,27,2
2387,63.0220091342926,25,25,52,96,41,26,28,24,2
2388,63.044718980789185,25,25,55,91,39,28,29,27,2
2389,63.06719255447388,24,25,59,116,43,30,29,28,2
2390,63.09030103683472,34,34,61,125,51,37,41,34,2
2391,63.10462307929993,35,31,51,106,49,38,41,32,2
2392,63.12924647331238,38,33,50,109,47,38,42,33,2
2393,63.142069578170776,36,31,47,116,48,37,42,31,2
2394,63.16543674468994,37,31,42,88,45,36,41,31,2
2395,63.18705654144287,27,24,38,75,35,33,29,24,2
2396,63.204708099365234,28,29,37,74,35,33,30,26,2
2397,63.224491357803345,25,27,36,70,34,32,27,24,2
2398,63.24713325500488,27,33,47,77,34,37,32,26,2
2399,63.26973605155945,32,37,63,103,52,48,41,33,2
2400,63.285725593566895,32,36,65,113,55,46,41,34,2
2401,63.30700325965881,35,37,66,114,57,48,44,35,2
2402,63.32952857017517,38,42,69,114,61,56,50,36,2
2403,63.344545125961304,37,38,60,100,62,52,48,36,2
2404,63.367112159729004,32,33,42,76,46,42,41,29,2
2405,63.38962984085083,31,33,37,77,45,39,40,29,2
2406,63.40471148490906,29,32,34,77,43,37,35,27,2
2407,63.43530535697937,26,25,25,73,37,24,25,24,2
2408,63.449764251708984,28,27,31,77,40,27,24,25,2
2409,63.46474361419678,29,26,30,76,41,25,24,26,2
2410,63.487159967422485,29,25,33,61,40,27,24,28,2
2411,63.509766817092896,30,26,32,62,39,29,28,29,2
2412,63.5245361328125,29,27,35,74,40,29,28,29,2
2413,63.54725122451782,28,27,33,74,37,26,28,30,2
2414,63.56969666481018,26,27,32,78,37,29,28,28,2
2415,63.5848433971405,29,29,41,84,42,38,32,29,2
2416,63.60729002952576,27,30,45,85,47,38,35,29,2
2417,63.629613637924194,31,28,44,82,51,40,38,30,2
2418,63.64454412460327,33,31,42,82,51,43,40,29,2
2419,63.66703724861145,33,32,41,75,50,42,41,28,2
2420,63.68951177597046,33,31,35,66,45,36,40,29,2
2421,63.70451736450195,33,27,31,73,43,35,35,30,2
2422,63.72709107398987,31,28,32,73,38,40,34,29,2
2423,63.74896574020386,29,26,36,72,38,41,33,27,2
