,time,chanel1,chanel2,chanel3,chanel4,chanel5,chanel6,chanel7,chanel8,position
0,15.584529638290405,249,273,142,119,84,343,489,94,1
1,15.605167388916016,234,302,154,125,73,298,539,92,1
2,15.626064538955688,288,386,202,152,86,240,566,112,1
3,15.648050785064697,292,439,233,163,92,310,607,119,1
4,15.670397520065308,276,445,235,165,103,323,629,119,1
5,15.687628984451294,269,447,239,164,107,314,619,116,1
6,15.710891246795654,298,466,267,181,108,341,633,131,1
7,15.732933282852173,261,437,251,171,102,355,631,128,1
8,18.15358591079712,227,385,183,111,97,189,405,113,1
9,18.1787428855896,200,347,176,105,93,188,411,113,1
10,18.205692291259766,200,331,169,109,102,193,394,112,1
11,18.31956911087036,291,387,221,150,105,246,550,96,1
12,18.343360662460327,290,400,217,148,103,247,545,115,1
13,18.371214151382446,287,387,209,162,128,237,529,115,1
14,18.39385151863098,311,373,194,152,128,225,532,114,1
15,18.42342734336853,299,371,189,148,135,205,522,128,1
16,18.445897340774536,261,340,163,127,130,179,419,119,1
17,18.469318389892578,312,357,182,150,141,189,520,104,1
18,18.498669862747192,315,348,173,131,113,181,504,106,1
19,18.520951747894287,279,309,159,122,107,184,492,103,1
20,18.545462369918823,263,335,177,156,120,208,518,80,1
21,18.57326865196228,263,354,177,165,130,213,512,80,1
22,18.59793710708618,225,339,165,147,115,210,518,84,1
23,18.62590742111206,273,365,185,159,132,228,567,91,1
24,18.6486873626709,281,376,196,161,134,223,586,103,1
25,18.678797245025635,296,346,173,130,119,227,589,99,1
26,18.70087242126465,298,329,172,119,110,243,583,103,1
27,18.725507259368896,284,309,170,101,110,244,483,96,1
28,18.76094341278076,234,315,185,81,100,249,506,92,1
29,18.775856018066406,235,317,178,91,93,264,495,82,1
30,18.80125093460083,225,330,187,93,94,244,478,82,1
31,18.8283793926239,217,333,189,97,92,218,484,81,1
32,18.853052854537964,221,349,193,139,97,267,568,86,1
33,18.88092875480652,266,362,191,189,102,264,551,88,1
34,18.903403997421265,251,355,186,189,106,261,551,84,1
35,18.93346357345581,246,335,176,183,99,257,525,88,1
36,18.95582413673401,258,311,164,182,94,257,512,84,1
37,18.978604793548584,242,273,148,158,85,195,447,84,1
38,19.007911443710327,202,213,114,98,77,176,393,86,1
39,19.030420064926147,193,206,115,97,75,156,378,86,1
40,19.06089472770691,192,220,153,109,84,143,444,86,1
41,19.08346128463745,172,218,157,108,87,131,443,86,1
42,19.113487720489502,170,219,153,103,85,163,472,95,1
43,19.136185884475708,160,197,149,105,77,151,466,88,1
44,19.158592700958252,180,230,153,111,79,158,468,104,1
45,19.18843650817871,174,223,121,98,71,188,438,98,1
46,19.210437297821045,176,239,125,105,78,189,433,99,1
47,19.241164445877075,178,257,122,103,79,161,348,86,1
48,19.263470888137817,202,259,122,100,79,165,328,89,1
49,19.287718296051025,188,233,117,108,85,157,298,66,1
50,19.31640887260437,172,216,112,109,83,151,268,68,1
51,19.338352918624878,164,198,99,114,78,166,269,69,1
52,19.363754987716675,160,197,107,124,82,172,268,62,1
53,19.390809774398804,113,188,99,123,84,167,287,51,1
54,19.41562247276306,114,222,106,113,76,158,286,53,1
55,19.444525718688965,110,214,98,114,80,159,283,53,1
56,19.46600031852722,112,227,105,110,76,145,299,51,1
57,19.496078729629517,94,201,97,104,74,135,290,52,1
58,19.518038749694824,127,222,104,105,73,148,284,53,1
59,19.54252815246582,133,187,98,97,77,159,276,52,1
60,19.570797443389893,129,183,97,95,73,130,238,53,1
61,19.593287467956543,135,170,98,93,76,130,218,49,1
62,19.623428106307983,164,177,97,106,73,130,237,56,1
63,19.645522117614746,140,149,92,106,76,120,212,59,1
64,19.669578313827515,125,142,85,111,66,104,207,59,1
65,19.69890856742859,135,166,98,122,76,114,219,60,1
66,19.7209050655365,140,165,96,118,83,123,225,59,1
67,19.751026391983032,128,162,100,106,99,128,221,55,1
68,19.773487091064453,129,165,100,102,94,122,244,53,1
69,19.800360202789307,130,156,94,88,96,122,234,52,1
70,19.82622504234314,127,153,98,74,90,124,235,51,1
71,19.85024380683899,111,147,96,84,87,124,237,53,1
72,19.879648208618164,88,155,99,81,73,117,233,51,1
73,19.90095019340515,87,152,100,82,78,117,208,50,1
74,19.93118929862976,93,163,103,98,82,128,214,49,1
75,19.953402280807495,92,170,119,102,88,133,278,49,1
76,19.97581171989441,92,169,114,117,98,149,310,56,1
77,20.005866527557373,98,162,111,121,97,150,309,59,1
78,20.028366565704346,105,168,116,125,93,146,312,60,1
79,20.0583176612854,100,161,125,126,98,142,311,68,1
80,20.080915451049805,90,132,98,130,94,128,246,69,1
81,20.105318307876587,97,148,101,110,77,95,195,68,1
82,20.133525371551514,98,135,101,122,82,125,243,62,1
83,20.15587592124939,107,137,99,121,82,143,232,66,1
84,20.18253254890442,114,149,94,110,73,140,264,61,1
85,20.20837926864624,144,201,116,121,75,141,335,56,1
86,20.23102831840515,163,205,122,124,80,159,416,53,1
87,20.260906219482422,169,213,131,111,79,134,396,58,1
88,20.28381085395813,163,214,134,110,80,116,414,54,1
89,20.313633918762207,158,209,134,108,77,111,393,54,1
90,20.336028575897217,142,168,123,86,72,107,336,53,1
91,20.35777473449707,121,178,130,80,70,97,265,55,1
92,20.38836407661438,105,170,116,85,63,93,244,53,1
93,20.41087055206299,102,170,111,91,65,101,215,54,1
94,20.436749696731567,101,162,107,94,66,103,210,57,1
95,20.463951349258423,125,172,112,103,69,109,214,59,1
96,26.575780868530273,42,28,34,220,75,42,42,32,2
97,26.590890645980835,39,26,33,223,75,40,41,31,2
98,26.613251447677612,40,26,30,211,72,41,42,29,2
99,26.635982036590576,41,23,29,172,63,33,39,32,2
100,28.12131977081299,57,37,47,200,82,49,54,29,2
101,28.135720014572144,56,35,47,192,80,51,53,27,2
102,28.158159494400024,53,34,43,164,78,43,50,30,2
103,28.180827140808105,48,32,41,166,76,44,46,29,2
104,28.195234775543213,61,34,45,155,85,49,48,34,2
105,28.218383073806763,56,30,40,145,77,44,45,34,2
106,28.24132227897644,57,30,38,128,74,41,45,34,2
107,28.25628924369812,56,33,36,111,71,44,46,35,2
108,28.27870512008667,55,33,32,91,71,45,47,38,2
109,28.30134344100952,33,30,24,73,46,39,35,35,2
110,28.315650939941406,35,30,25,77,45,39,35,36,2
111,28.33836817741394,31,28,27,69,45,41,35,35,2
112,28.360787868499756,35,27,31,72,48,40,30,33,2
113,28.37574863433838,38,28,31,77,44,40,31,32,2
114,28.39828658103943,40,27,34,82,45,41,33,32,2
115,28.42106580734253,44,26,34,79,49,38,36,32,2
116,28.436357736587524,45,26,34,84,57,38,40,33,2
117,28.459359407424927,42,23,31,97,51,36,40,34,2
118,28.480883359909058,40,25,32,108,58,41,39,36,2
119,28.49581027030945,41,24,31,107,63,41,42,35,2
120,29.726012468338013,42,26,35,134,42,36,37,26,2
121,29.740893363952637,45,30,40,125,53,50,41,27,2
122,29.763288259506226,45,31,39,128,54,49,42,25,2
123,29.786861658096313,54,30,46,186,51,50,49,23,2
124,29.801286697387695,58,31,46,194,54,51,55,24,2
125,29.82375478744507,60,35,51,188,66,55,56,22,2
126,29.84647822380066,57,31,52,192,65,45,57,21,2
127,29.860719919204712,58,31,54,212,69,45,59,23,2
128,29.883459091186523,52,30,46,170,74,45,52,22,2
129,29.906622648239136,46,30,48,159,78,50,46,24,2
130,29.920854568481445,43,30,46,156,77,46,45,25,2
131,29.943410873413086,40,32,43,161,74,43,41,25,2
132,29.96652054786682,41,34,49,147,84,52,41,26,2
133,29.980815649032593,39,38,49,119,80,50,44,27,2
134,30.00345778465271,39,41,48,127,78,49,45,30,2
135,30.02652406692505,46,38,48,151,71,49,44,33,2
136,30.040889739990234,50,37,46,150,69,49,45,35,2
137,30.063256978988647,49,35,40,142,58,41,46,34,2
138,30.086466312408447,48,31,41,139,60,44,44,34,2
139,30.100743055343628,49,27,37,126,58,39,47,31,2
140,30.12339735031128,39,26,38,116,55,35,44,28,2
141,30.146320104599,35,27,42,112,55,34,44,27,2
142,30.160982608795166,38,30,44,113,59,37,46,26,2
143,30.1832332611084,36,30,41,111,58,35,43,26,2
144,30.20656728744507,35,31,44,127,56,41,38,26,2
145,30.22144865989685,40,33,46,123,66,49,41,26,2
146,30.245116233825684,46,36,43,119,82,61,40,26,2
147,30.266462802886963,47,38,40,114,100,68,39,27,2
148,30.280784606933594,51,44,42,126,111,72,42,26,2
149,30.30336332321167,64,48,45,136,122,74,57,28,2
150,30.326703310012817,71,49,42,131,123,73,63,28,2
151,30.34030032157898,66,45,44,130,117,67,62,31,2
152,30.362746477127075,64,42,44,141,98,58,62,32,2
153,30.386768102645874,68,39,42,135,84,51,66,31,2
154,30.400866985321045,56,33,37,118,78,50,55,31,2
155,30.42281746864319,49,30,35,112,70,49,49,31,2
156,30.4459867477417,48,29,31,106,66,47,46,27,2
157,30.460166931152344,46,29,30,109,69,46,44,26,2
158,30.482794284820557,39,28,35,123,78,52,42,26,2
159,30.506467580795288,51,28,34,123,69,45,48,26,2
160,30.52103328704834,59,31,38,125,72,45,45,29,2
161,30.543570518493652,63,33,38,126,70,44,49,30,2
162,30.566468238830566,68,33,42,160,66,43,53,30,2
163,30.589279174804688,71,33,40,155,61,40,52,32,2
164,30.603410720825195,61,32,41,150,64,43,44,33,2
165,30.62652897834778,49,30,40,149,60,43,45,33,2
166,30.64887523651123,46,26,38,152,56,43,43,32,2
167,30.662758827209473,43,26,36,98,60,45,36,35,2
168,30.686506271362305,38,28,35,90,61,48,37,36,2
169,30.709277868270874,41,31,36,92,61,47,39,37,2
170,30.724524974822998,44,32,35,95,68,50,39,37,2
171,30.746001958847046,43,35,37,86,72,51,37,36,2
172,30.76837134361267,37,33,34,103,66,47,36,33,2
173,30.783215761184692,32,32,35,117,71,47,32,33,2
174,30.806639432907104,30,32,31,115,70,49,33,30,2
175,30.829214334487915,25,31,31,121,60,43,33,28,2
176,30.84330439567566,30,32,30,124,63,44,36,33,2
177,30.866525411605835,31,34,37,119,65,48,38,31,2
178,30.889134168624878,36,33,38,109,62,48,40,31,2
179,30.903356552124023,38,36,42,106,66,54,39,31,2
180,30.9264132976532,41,36,42,96,68,55,38,31,2
181,30.948904991149902,39,35,42,103,67,52,36,28,2
182,30.96361994743347,37,34,43,98,75,57,36,33,2
183,30.994030952453613,34,37,43,92,77,57,33,30,2
184,31.00927233695984,39,32,39,110,77,50,33,32,2
185,31.023386478424072,46,38,43,128,86,61,38,34,2
186,31.046470880508423,50,39,43,119,87,62,37,34,2
187,31.069629192352295,50,39,40,118,81,57,36,30,2
188,31.083430767059326,51,35,39,115,73,53,37,32,2
189,31.107080936431885,47,36,40,105,70,52,36,30,2
190,31.128965139389038,45,35,38,94,61,41,35,31,2
191,31.143774032592773,42,31,40,115,64,40,35,31,2
192,31.166357278823853,45,34,39,112,62,41,36,32,2
193,31.18927764892578,49,35,37,115,73,47,42,32,2
194,31.204097747802734,50,33,39,131,71,50,44,34,2
195,31.226736307144165,44,29,37,138,68,47,42,31,2
196,31.249016523361206,44,30,33,120,63,50,47,31,2
197,31.263253450393677,43,25,34,123,59,47,51,34,2
198,31.286530256271362,36,25,36,125,54,47,52,36,2
199,31.30890965461731,36,26,32,113,56,48,54,35,2
200,31.323302030563354,40,26,32,92,58,48,53,37,2
201,31.346760749816895,37,30,35,93,57,47,48,39,2
202,31.37673020362854,39,31,32,85,65,53,41,39,2
203,31.38316559791565,40,30,30,82,62,47,34,36,2
204,31.406487226486206,38,33,35,77,62,43,29,36,2
205,31.428433656692505,32,34,41,111,66,45,28,33,2
206,31.443763494491577,32,31,42,117,68,43,32,29,2
207,31.466174364089966,30,32,42,122,65,41,33,28,2
208,31.489169597625732,30,31,41,120,62,43,34,28,2
209,31.503648281097412,32,29,42,121,78,47,38,28,2
210,31.526539087295532,39,28,38,106,77,45,40,35,2
211,31.54849147796631,44,32,37,100,74,47,45,37,2
212,31.571375608444214,44,31,37,102,77,45,44,34,2
213,31.586605310440063,45,32,38,103,79,44,46,34,2
214,31.609262228012085,43,29,36,99,61,37,43,34,2
215,31.63143014907837,41,31,38,102,60,40,41,28,2
216,31.646393537521362,41,30,37,106,59,35,33,27,2
217,31.669189929962158,39,28,37,102,52,30,33,28,2
218,31.691917181015015,37,28,37,105,49,33,28,28,2
219,31.706527948379517,46,30,33,112,61,40,35,28,2
220,31.72862410545349,47,28,26,95,58,40,39,28,2
221,31.750908374786377,43,26,26,102,57,42,40,31,2
222,31.766315698623657,44,27,30,116,61,44,39,32,2
223,31.788837909698486,49,28,32,116,61,41,45,32,2
224,31.811288356781006,40,24,32,110,47,36,39,35,2
225,31.826456546783447,35,25,35,118,57,40,37,36,2
226,31.849300384521484,39,25,37,134,59,39,38,37,2
227,31.873263835906982,40,25,36,126,65,42,39,37,2
228,31.88582181930542,38,26,37,129,75,52,35,38,2
229,31.908493280410767,40,26,38,125,79,56,41,34,2
230,31.931487560272217,45,26,40,143,76,55,41,32,2
231,31.945142030715942,42,29,40,130,76,55,40,31,2
232,31.969335079193115,42,30,39,122,68,52,39,29,2
233,31.9913592338562,39,28,35,121,57,42,37,28,2
234,32.00621843338013,37,28,36,142,62,39,29,27,2
235,32.02884221076965,38,33,40,131,76,45,30,30,2
236,32.05190396308899,42,30,44,134,78,46,31,27,2
237,32.0653977394104,43,30,46,138,80,46,37,28,2
238,32.089022397994995,46,33,46,134,83,50,48,26,2
239,32.11135506629944,48,34,51,154,92,53,52,27,2
240,32.125829458236694,47,29,48,154,85,46,52,34,2
241,32.14893388748169,43,32,44,146,91,53,55,37,2
242,32.1733717918396,43,33,45,160,103,56,52,40,2
243,32.185614824295044,43,31,45,174,99,53,43,39,2
244,32.20898199081421,44,35,41,140,92,52,47,40,2
245,32.231513023376465,42,35,37,130,89,54,46,38,2
246,32.24562954902649,43,35,39,124,82,48,44,35,2
247,32.26889514923096,43,32,35,112,70,47,47,35,2
248,32.291871786117554,40,37,38,94,79,54,48,37,2
249,32.30565667152405,37,32,35,89,73,52,41,38,2
250,32.329004764556885,34,33,41,112,71,49,39,33,2
251,32.35115885734558,35,34,42,117,73,49,43,34,2
252,32.365687131881714,33,34,40,104,71,48,37,33,2
253,32.38905215263367,41,29,46,137,68,43,39,31,2
254,32.41130971908569,43,32,51,142,76,48,43,29,2
255,32.4257869720459,48,29,47,130,69,46,44,33,2
256,32.448959827423096,48,28,46,144,69,47,41,35,2
257,32.47234129905701,51,33,46,147,70,46,44,35,2
258,32.494060039520264,46,34,40,120,62,42,41,36,2
259,32.50895404815674,45,35,36,136,63,45,36,36,2
260,32.531389474868774,41,36,34,128,66,49,36,37,2
261,32.55443716049194,38,35,33,118,65,47,33,35,2
262,32.568116664886475,35,32,38,122,68,47,30,34,2
263,32.59172773361206,38,33,38,114,72,50,40,35,2
264,32.61390972137451,39,29,34,91,65,41,42,33,2
265,32.62901568412781,38,30,36,96,65,37,42,30,2
266,32.65140461921692,40,29,38,105,61,35,46,28,2
267,32.67454433441162,40,32,35,111,59,42,48,33,2
268,32.68891215324402,35,32,33,109,53,38,38,32,2
269,32.71161484718323,30,34,35,108,62,42,37,34,2
270,32.7338125705719,31,32,32,109,61,44,40,35,2
271,32.74883031845093,29,33,30,103,59,43,39,38,2
272,32.77165722846985,30,29,29,94,61,38,37,35,2
273,32.793336391448975,31,28,31,105,78,45,37,34,2
274,32.80835223197937,34,28,28,105,72,45,39,35,2
275,32.83174157142639,37,31,33,100,79,46,37,33,2
276,32.85430335998535,38,32,35,97,83,50,37,33,2
277,32.86914110183716,43,34,43,115,86,53,39,34,2
278,32.89188838005066,48,33,42,112,74,48,44,34,2
279,32.91410779953003,51,35,46,115,75,48,44,36,2
280,32.927921533584595,49,32,46,122,75,47,41,38,2
281,32.950958013534546,48,29,44,121,75,47,39,35,2
282,32.974252462387085,44,28,35,105,71,47,37,32,2
283,32.98838138580322,39,28,38,112,72,48,32,32,2
284,33.011040449142456,33,25,36,126,67,46,29,36,2
285,33.03340768814087,32,28,36,121,61,45,30,33,2
286,33.0483033657074,30,28,36,111,56,40,28,33,2
287,33.0715389251709,29,26,38,109,51,33,29,32,2
288,33.0939245223999,31,27,37,101,47,33,29,31,2
289,33.108298540115356,31,26,41,97,52,36,32,27,2
290,33.13091731071472,33,26,41,100,52,38,31,28,2
291,33.153980016708374,34,27,42,102,51,38,32,31,2
292,33.176517724990845,37,28,42,103,59,41,35,32,2
293,33.19164419174194,35,27,42,111,59,38,35,33,2
294,33.21399998664856,35,25,37,92,54,34,35,30,2
295,33.22829508781433,39,23,34,100,54,34,42,29,2
296,33.25144815444946,41,24,36,104,55,36,42,30,2
297,33.273903131484985,40,25,36,106,50,35,42,30,2
298,33.288461685180664,47,26,33,105,47,34,46,30,2
299,33.31169581413269,49,28,35,114,49,38,46,35,2
300,33.33380365371704,47,27,37,108,52,37,43,36,2
301,33.348448276519775,46,32,36,120,61,44,45,31,2
302,33.37101483345032,46,36,37,115,70,51,44,31,2
303,33.39390158653259,42,36,39,111,74,52,43,31,2
304,33.40936803817749,43,38,41,122,84,59,46,29,2
305,33.4311466217041,42,40,41,120,83,61,46,27,2
306,33.454076051712036,40,36,38,105,75,56,45,29,2
307,33.47643041610718,38,32,37,126,68,51,44,30,2
308,33.49176096916199,41,34,39,128,76,59,44,30,2
309,33.51407241821289,40,31,31,109,71,52,41,28,2
310,33.536449670791626,42,29,29,120,69,50,38,30,2
311,33.551350831985474,44,29,33,121,74,52,35,30,2
312,33.57429790496826,41,28,33,98,74,53,34,31,2
313,33.59636116027832,36,27,32,85,65,45,34,30,2
314,33.61256814002991,41,31,40,106,68,52,37,30,2
315,33.63327503204346,39,31,42,93,70,49,38,31,2
316,33.6580708026886,36,31,41,90,67,48,36,33,2
317,33.674973487854004,42,32,43,105,66,45,40,31,2
318,33.69330096244812,45,30,42,117,67,45,44,33,2
319,33.71549415588379,39,27,40,102,60,38,44,31,2
320,33.733020305633545,42,33,41,105,69,43,47,31,2
321,33.75316882133484,47,35,42,109,75,49,54,27,2
322,33.77575159072876,48,38,40,105,78,54,54,27,2
323,33.79245972633362,48,38,37,99,74,52,47,28,2
324,33.813291788101196,49,39,34,90,73,54,48,31,2
325,33.8357720375061,47,34,32,87,68,50,45,30,2
326,33.85260820388794,47,33,32,82,68,48,36,31,2
327,33.87322282791138,45,31,35,79,65,44,32,31,2
328,33.895567655563354,47,33,38,80,70,47,37,29,2
329,33.912434577941895,45,29,39,81,66,41,34,30,2
330,33.933143854141235,43,29,38,90,64,45,35,29,2
331,33.95646643638611,40,30,36,89,56,45,37,31,2
332,33.9737184047699,39,28,36,85,60,46,37,33,2
333,33.993481159210205,36,29,38,84,62,49,34,33,2
334,34.01515507698059,34,31,36,87,64,52,36,34,2
335,34.034329891204834,42,35,37,83,68,54,44,36,2
336,34.05332660675049,42,35,36,84,67,50,49,34,2
337,34.07638192176819,43,38,46,132,77,54,54,32,2
338,34.091851234436035,45,38,45,133,70,50,53,33,2
339,34.11315965652466,46,37,46,133,74,53,51,32,2
340,34.13565278053284,42,37,45,131,73,49,44,33,2
341,34.152445554733276,42,37,47,146,74,49,38,31,2
342,34.17323899269104,41,33,36,111,57,41,35,32,2
343,34.19563555717468,41,33,36,110,65,43,37,33,2
344,34.21258878707886,42,34,34,117,61,40,42,32,2
345,34.23478031158447,39,31,36,123,60,40,41,30,2
346,34.255332708358765,41,36,40,110,70,45,44,34,2
347,34.271748065948486,39,37,41,111,77,48,40,34,2
348,34.29406380653381,37,35,39,110,73,49,37,30,2
349,34.315484285354614,41,35,47,129,77,47,36,32,2
350,34.332414627075195,45,35,47,141,75,50,43,36,2
351,34.35499310493469,44,28,43,138,65,44,41,34,2
352,34.3758339881897,42,27,42,131,61,42,42,34,2
353,34.3979377746582,44,30,42,132,61,39,43,34,2
354,34.41559362411499,45,31,36,107,56,37,41,35,2
355,34.4351601600647,43,37,45,93,75,46,36,30,2
356,34.45829367637634,46,37,46,100,78,47,35,30,2
357,34.47620940208435,51,40,53,134,89,50,33,29,2
358,34.495808839797974,51,39,55,146,91,54,38,29,2
359,34.51817750930786,50,39,55,147,94,60,42,28,2
360,34.535569190979004,48,30,48,148,78,52,40,30,2
361,34.55587887763977,45,31,48,155,75,52,42,29,2
362,34.578107833862305,41,28,41,130,60,50,45,30,2
363,34.5951087474823,37,27,42,116,59,45,40,31,2
364,34.61579990386963,31,26,39,118,61,43,34,34,2
365,34.63824820518494,32,30,40,114,67,44,33,35,2
366,34.65540552139282,34,29,39,93,68,49,32,35,2
367,34.67535400390625,34,30,37,101,65,48,32,36,2
368,34.69851279258728,36,27,34,99,63,48,37,36,2
369,34.7147753238678,43,30,34,109,63,45,41,32,2
370,34.73621439933777,42,28,30,117,54,41,42,30,2
371,34.75823926925659,41,27,29,120,53,34,44,31,2
372,34.77566695213318,40,28,27,112,60,36,41,29,2
373,34.795586824417114,42,33,32,115,68,41,40,28,2
374,34.818023920059204,35,33,39,110,70,45,42,27,2
375,34.834853410720825,41,33,41,110,77,49,49,27,2
376,34.855178117752075,39,33,41,108,79,53,48,26,2
377,34.87810730934143,46,33,44,110,81,56,53,27,2
378,34.895663261413574,48,34,46,120,105,65,54,29,2
379,34.91527032852173,49,31,44,111,100,62,50,32,2
380,34.937633752822876,47,31,44,103,94,60,42,33,2
381,34.95559740066528,51,34,48,123,103,63,46,32,2
382,34.975685358047485,47,36,48,135,100,59,48,35,2
383,34.99810314178467,49,32,44,133,74,46,47,34,2
384,35.01491665840149,50,35,43,139,74,45,48,32,2
385,35.03551626205444,52,35,40,141,77,47,49,34,2
386,35.05817699432373,53,32,35,131,67,38,48,36,2
387,35.075003147125244,60,33,40,140,82,40,46,35,2
388,35.09639525413513,57,34,40,153,86,40,45,34,2
389,35.117576122283936,59,33,39,150,85,40,48,33,2
390,35.135836362838745,54,32,42,163,82,37,46,29,2
391,35.15849494934082,52,35,48,160,90,48,46,26,2
392,35.17960476875305,42,34,48,147,82,49,42,27,2
393,35.19565415382385,41,33,47,144,80,54,39,26,2
394,35.217111110687256,38,32,45,140,82,57,39,26,2
395,35.23819851875305,38,33,44,120,83,58,39,26,2
396,35.25672674179077,40,32,40,129,74,55,38,32,2
397,35.277127504348755,39,32,39,123,72,54,38,28,2
398,35.2981071472168,39,30,38,100,68,52,41,32,2
399,35.315107107162476,42,33,39,105,72,51,39,33,2
400,35.33566093444824,42,32,41,123,79,54,40,34,2
401,35.35829710960388,38,33,44,152,79,53,40,30,2
402,35.38066005706787,40,36,46,151,82,59,43,34,2
403,35.39563035964966,39,38,46,154,83,57,41,37,2
404,35.418155908584595,37,36,48,153,79,56,43,38,2
405,35.442195415496826,41,36,47,145,79,54,44,38,2
406,35.45653009414673,40,36,45,133,91,53,42,38,2
407,35.478647232055664,39,32,42,148,83,43,40,35,2
408,35.50074338912964,41,31,45,147,81,43,43,31,2
409,35.515652894973755,37,34,45,161,87,45,39,33,2
410,35.54334616661072,34,33,45,157,84,44,37,32,2
411,35.56098484992981,35,30,42,135,64,41,39,32,2
412,35.57552528381348,33,30,40,125,67,43,39,33,2
413,35.598236083984375,32,28,39,145,65,44,39,31,2
414,35.620529651641846,34,26,38,131,56,41,38,28,2
415,35.63575887680054,34,28,35,128,50,40,38,29,2
416,35.66032099723816,39,29,34,123,48,41,38,30,2
417,35.68073296546936,39,28,35,119,48,43,37,29,2
418,35.69570446014404,42,31,38,102,55,42,36,32,2
419,35.71823835372925,43,33,39,100,64,44,35,30,2
420,35.74125623703003,44,35,46,109,66,44,36,30,2
421,35.75597143173218,39,32,46,109,67,42,35,29,2
422,35.778226375579834,39,34,47,103,67,38,36,27,2
423,35.80091452598572,36,31,41,87,67,45,31,25,2
424,35.81568956375122,36,29,40,92,63,42,38,25,2
425,35.83769464492798,38,29,33,105,70,50,42,22,2
426,35.86069965362549,47,32,35,115,73,50,48,26,2
427,35.875813484191895,48,31,33,116,70,51,49,28,2
428,35.897682189941406,49,30,35,122,64,43,51,29,2
429,35.92004442214966,51,31,36,127,65,44,49,31,2
430,35.93562912940979,50,29,37,113,60,36,47,34,2
431,35.965622425079346,46,28,40,119,65,38,41,34,2
432,35.98067235946655,51,32,43,123,80,48,46,34,2
433,35.996747970581055,50,32,43,124,79,48,44,33,2
434,36.01846432685852,45,33,45,123,85,54,43,31,2
435,36.040776014328,47,38,46,129,85,57,40,28,2
436,36.05572962760925,44,40,43,115,80,55,41,27,2
437,36.07836079597473,38,40,43,128,69,51,36,25,2
438,36.10089468955994,43,41,42,133,69,51,41,26,2
439,36.115662574768066,44,41,43,145,68,52,42,29,2
440,36.138068199157715,37,37,43,136,65,52,43,30,2
441,36.160764932632446,36,35,44,157,68,52,44,30,2
442,36.17586064338684,37,32,42,147,67,48,44,31,2
443,36.198373794555664,33,34,42,145,77,54,41,31,2
444,36.2205286026001,38,32,39,128,76,50,43,32,2
445,36.2355637550354,39,31,43,142,87,50,44,32,2
446,36.258238315582275,41,31,42,126,85,50,42,32,2
447,36.28123879432678,39,31,43,123,83,48,40,33,2
448,36.302762269973755,39,31,45,118,84,49,44,33,2
449,36.317607164382935,41,30,45,120,79,46,46,33,2
450,36.341562271118164,46,30,46,126,63,42,47,31,2
451,36.363224029541016,48,33,52,121,68,51,52,32,2
452,36.37823510169983,47,34,52,129,75,53,52,34,2
453,36.4008355140686,45,32,50,129,61,45,50,36,2
454,36.424076318740845,43,33,50,156,62,51,50,36,2
455,36.438238859176636,40,33,45,140,63,53,49,37,2
456,36.46095824241638,37,31,38,143,58,44,43,38,2
457,36.48250365257263,41,34,39,133,64,51,44,35,2
458,36.498079776763916,42,37,41,131,72,58,44,32,2
459,36.52115225791931,41,35,37,94,69,53,36,29,2
460,36.54406499862671,42,38,39,116,79,57,37,32,2
461,36.558215379714966,42,39,38,123,77,60,38,29,2
462,36.580679178237915,36,34,38,117,66,53,35,30,2
463,36.604079484939575,36,32,40,120,70,52,38,30,2
464,36.61831593513489,34,33,42,127,71,53,44,31,2
465,36.64316487312317,30,32,41,110,67,46,40,30,2
466,36.662596702575684,33,31,42,102,72,46,41,31,2
467,36.678502559661865,38,31,39,108,74,46,42,33,2
468,36.700628995895386,37,29,39,122,66,39,38,32,2
469,36.72349286079407,37,31,39,113,72,44,33,33,2
470,36.73875379562378,39,27,37,105,66,42,36,33,2
471,36.76307249069214,38,27,38,105,65,42,37,31,2
472,36.78323936462402,34,28,37,108,65,47,36,29,2
473,36.79811358451843,38,33,33,93,74,54,41,29,2
474,36.820772886276245,38,28,31,93,67,48,40,28,2
475,36.84427261352539,35,32,42,114,73,55,42,30,2
476,36.85826921463013,37,34,43,117,78,55,44,31,2
477,36.88066577911377,37,34,47,116,77,54,43,33,2
478,37.38320565223694,46,31,41,133,74,38,44,28,2
479,37.40588021278381,45,31,42,120,72,38,44,27,2
480,37.420241594314575,35,26,39,92,55,32,42,24,2
481,37.44345283508301,33,27,45,115,56,39,40,27,2
482,37.465110540390015,33,24,43,116,67,45,43,30,2
483,37.48064374923706,34,28,47,117,82,51,45,30,2
484,37.503239154815674,36,28,47,128,83,51,46,30,2
485,37.528125524520874,42,29,45,133,90,53,47,32,2
486,37.54065012931824,40,29,36,126,90,51,47,32,2
487,37.563462257385254,39,29,38,127,81,45,42,30,2
488,37.58556342124939,38,26,37,135,69,40,37,34,2
489,37.60078549385071,39,28,37,126,67,42,40,35,2
490,37.62314033508301,41,30,37,120,64,44,46,33,2
491,37.645559549331665,41,30,38,114,67,42,46,32,2
492,37.660749197006226,42,33,40,126,74,46,46,31,2
493,37.68319129943848,41,32,37,115,70,44,46,32,2
494,37.70616149902344,42,30,36,120,70,45,44,31,2
495,37.720484018325806,36,30,33,123,64,41,36,32,2
496,37.74403262138367,39,29,38,143,61,45,42,32,2
497,37.76649451255798,39,24,36,142,51,41,42,31,2
498,37.78068566322327,40,26,37,138,49,41,42,26,2
499,37.80348348617554,41,28,37,132,62,46,43,26,2
500,37.82588291168213,42,29,40,152,71,52,44,24,2
501,37.84085988998413,43,28,40,131,69,49,42,27,2
502,37.86315298080444,45,33,41,118,76,52,45,29,2
503,37.88603591918945,46,32,41,124,77,54,45,28,2
504,37.90070629119873,42,29,45,134,73,51,41,29,2
505,37.92329812049866,42,26,45,107,64,47,40,31,2
506,37.94560670852661,41,28,42,103,63,46,36,30,2
507,37.961522340774536,47,29,41,125,62,47,40,28,2
508,37.983208417892456,47,31,39,122,71,50,41,28,2
509,38.013880252838135,48,31,35,113,68,46,43,26,2
510,38.02063965797424,49,34,35,113,69,46,41,29,2
511,38.043647050857544,47,34,35,128,74,50,43,28,2
512,38.065982818603516,44,32,33,107,70,46,40,29,2
513,38.080711126327515,46,30,35,109,58,40,39,31,2
514,38.103047609329224,45,31,39,115,62,41,40,33,2
515,38.125771045684814,44,28,40,112,64,41,41,31,2
516,38.14089918136597,47,29,41,113,60,38,40,33,2
517,38.163084268569946,48,29,41,113,58,36,41,35,2
518,38.1855788230896,44,28,38,100,55,35,40,33,2
519,38.209404706954956,44,33,34,96,57,41,42,33,2
520,38.223326444625854,42,31,33,109,56,39,42,32,2
521,38.24601626396179,43,30,33,102,55,38,43,30,2
522,38.268855571746826,39,29,32,105,60,42,42,29,2
523,38.28332042694092,41,29,35,112,63,42,44,30,2
524,38.30630111694336,42,23,34,114,54,37,38,27,2
525,38.32905650138855,42,27,34,132,49,35,36,27,2
526,38.34344553947449,35,27,33,125,58,40,33,28,2
527,38.3656222820282,36,28,38,132,51,39,29,28,2
528,38.38889956474304,44,34,45,154,78,45,34,27,2
529,38.40297770500183,43,35,46,150,83,47,36,30,2
530,38.425689458847046,44,34,46,137,84,49,44,31,2
531,38.448195934295654,47,35,49,139,78,46,45,30,2
532,38.463199615478516,52,36,51,146,88,51,49,30,2
533,38.48572874069214,44,31,45,132,65,46,46,29,2
534,38.50889611244202,43,31,45,136,61,44,46,27,2
535,38.52332425117493,42,32,46,126,65,44,39,26,2
536,38.545660972595215,42,29,44,124,64,43,38,26,2
537,38.56801223754883,37,30,38,108,56,34,33,30,2
538,38.58294129371643,38,32,37,96,66,41,32,31,2
539,38.60572171211243,39,33,37,90,65,42,35,33,2
540,38.62883543968201,43,32,33,91,62,41,41,35,2
541,38.64394545555115,40,33,33,86,66,43,40,35,2
542,38.66655898094177,39,31,38,109,70,50,41,33,2
543,38.68809509277344,40,30,40,110,60,44,40,35,2
544,38.70318412780762,39,30,39,111,59,45,39,34,2
545,38.72582268714905,35,29,42,104,62,49,36,32,2
546,38.74853444099426,35,29,42,133,63,49,39,31,2
547,38.76262640953064,36,27,38,115,56,42,41,29,2
548,38.78573513031006,35,25,32,109,60,43,43,25,2
549,38.808462381362915,37,26,34,106,64,44,42,26,2
550,38.82402420043945,42,26,34,114,60,37,41,26,2
551,38.845614194869995,47,31,34,86,60,37,41,28,2
552,38.86819005012512,50,35,35,84,66,40,42,30,2
553,38.88316822052002,47,36,37,103,61,39,41,30,2
554,38.90571975708008,49,35,38,109,55,37,40,29,2
555,38.92811989784241,44,35,36,104,58,41,40,28,2
556,38.942684173583984,39,32,37,99,62,42,40,27,2
557,38.96551156044006,38,28,37,106,57,38,35,26,2
558,38.98810601234436,42,30,39,105,65,48,39,25,2
559,39.003122329711914,38,31,37,99,69,47,39,28,2
560,39.02574920654297,39,31,40,99,70,48,38,30,2
561,39.04862117767334,46,34,44,105,83,63,51,30,2
562,39.06326937675476,43,34,44,109,82,66,52,31,2
563,39.08510684967041,43,37,58,140,94,70,49,34,2
564,39.67144250869751,44,31,40,114,105,59,45,36,2
565,39.6857225894928,46,31,42,124,99,57,45,36,2
566,39.70820760726929,40,32,42,134,86,55,43,37,2
567,39.731263637542725,39,30,45,135,86,56,41,34,2
568,39.745972633361816,40,33,51,131,81,54,42,36,2
569,39.76834964752197,37,32,51,147,83,53,35,36,2
570,39.791478633880615,35,30,49,132,84,54,32,33,2
571,39.80564498901367,34,34,50,119,89,54,35,34,2
572,39.82819366455078,37,37,47,116,92,58,36,33,2
573,39.851476430892944,39,36,45,113,86,56,39,31,2
574,39.8654990196228,42,35,43,90,78,54,43,28,2
575,39.888062953948975,44,35,41,98,78,56,46,30,2
576,39.913700580596924,44,29,38,101,69,54,43,31,2
577,39.92589354515076,42,28,42,120,76,56,46,32,2
578,39.947654008865356,39,27,40,129,75,52,43,35,2
579,39.971301317214966,40,29,41,134,79,54,46,35,2
580,39.9857976436615,39,29,45,140,90,58,48,34,2
581,40.151328563690186,51,49,54,138,154,89,40,25,1
582,40.173264265060425,50,43,48,133,152,86,38,27,1
583,40.18850350379944,46,40,49,141,143,77,36,30,1
584,40.21116018295288,43,40,52,128,142,81,47,31,1
585,40.233678340911865,41,36,52,124,134,76,47,31,1
586,40.24832081794739,40,31,42,113,99,64,48,31,1
587,40.271719217300415,42,32,47,121,91,64,52,29,1
588,40.29353880882263,44,36,53,130,101,77,53,25,1
589,40.30771088600159,51,36,57,158,102,83,47,26,1
590,42.69418478012085,49,28,37,121,58,39,46,29,2
591,42.71632432937622,51,28,43,123,55,29,45,30,2
592,42.738810777664185,47,29,43,102,61,34,42,32,2
593,42.753169536590576,47,26,41,95,54,34,38,33,2
594,45.09998440742493,35,28,35,162,51,37,38,29,2
595,45.122936964035034,45,28,37,176,50,36,41,29,2
596,45.14551877975464,49,33,38,173,56,39,43,30,2
597,45.16058301925659,58,35,42,176,61,43,45,29,2
598,50.98138785362244,47,30,31,158,41,36,40,32,2
599,50.995426654815674,44,30,32,166,40,36,37,34,2
600,51.01870775222778,43,31,32,142,43,37,36,37,2
601,51.04119610786438,38,34,31,135,41,37,34,36,2
602,51.05561685562134,36,30,28,129,41,33,32,35,2
603,51.078967571258545,33,25,30,126,42,27,29,34,2
604,51.10139179229736,36,27,27,122,42,26,33,32,2
605,51.11570358276367,37,27,29,161,42,28,34,27,2
606,51.138726472854614,36,22,30,160,43,30,33,26,2
607,51.16174244880676,37,24,29,150,41,30,35,27,2
608,51.17584848403931,44,29,32,162,42,33,42,25,2
609,51.199026346206665,44,27,36,172,42,34,40,28,2
610,53.50793647766113,603,763,373,185,127,499,772,173,1
611,53.52473545074463,554,718,356,186,145,521,767,169,1
612,53.545106410980225,448,691,386,195,145,542,787,147,1
613,53.56753349304199,415,720,391,190,144,524,814,139,1
614,55.532944679260254,61,158,69,92,36,42,54,39,1
615,55.54802703857422,62,157,73,107,38,44,58,40,1
616,55.570096254348755,62,153,71,122,39,47,57,39,1
617,55.59326529502869,60,153,71,125,41,47,55,42,1
618,55.60792398452759,60,153,71,116,42,46,56,42,1
619,55.63069438934326,59,138,67,110,38,46,58,44,1
620,55.65299963951111,48,131,58,87,34,40,59,41,1
621,55.668097257614136,49,131,64,80,48,44,58,42,1
622,55.6905198097229,48,131,66,93,46,44,62,39,1
623,55.71341633796692,52,158,71,134,47,46,65,41,1
624,55.727864503860474,48,144,68,138,47,44,65,39,1
625,55.75039005279541,45,125,59,138,48,47,59,39,1
626,55.7723708152771,40,132,51,132,34,40,63,38,1
627,55.78903770446777,43,133,53,123,36,41,62,40,1
628,55.81048655509949,43,112,46,82,33,39,61,39,1
629,55.83304452896118,50,112,44,76,33,37,61,40,1
630,55.84794902801514,52,106,44,94,31,31,61,41,1
631,55.870399713516235,52,98,51,103,31,31,58,38,1
632,55.893486976623535,62,108,51,99,30,33,66,37,1
633,55.90799951553345,59,102,50,94,32,34,65,37,1
634,55.93043804168701,52,93,49,95,32,33,58,33,1
635,55.95331287384033,59,101,52,83,32,35,55,31,1
636,55.96852731704712,65,104,46,84,36,42,75,47,1
637,55.98994851112366,55,92,43,110,38,39,71,47,1
638,56.01294207572937,61,91,42,113,37,40,73,47,1
639,56.02789878845215,80,107,52,113,37,42,74,52,1
640,56.05046820640564,81,113,53,108,37,41,73,55,1
641,56.07303261756897,86,116,60,137,39,38,55,48,1
642,56.0880446434021,89,120,62,121,36,38,52,48,1
643,56.11037993431091,86,115,62,117,38,37,52,48,1
644,56.13299298286438,81,143,69,122,40,37,53,44,1
645,56.14849376678467,76,135,66,125,40,38,52,40,1
646,56.17039203643799,69,147,63,118,35,39,58,36,1
647,56.19288349151611,66,152,61,120,40,39,54,39,1
648,56.20787739753723,70,155,64,125,36,38,52,37,1
649,56.230387687683105,60,121,49,142,37,39,52,39,1
650,56.253050804138184,70,122,50,150,39,37,56,40,1
651,56.27635455131531,65,105,47,122,39,31,46,38,1
652,56.290363788604736,65,98,47,123,34,32,48,35,1
653,56.31318283081055,62,113,48,129,37,38,49,37,1
654,56.33572173118591,59,119,47,150,35,37,55,34,1
655,56.35059475898743,45,113,46,143,37,39,54,36,1
656,56.37296485900879,46,107,43,145,39,40,57,36,1
657,56.39528226852417,48,110,45,142,40,39,53,36,1
658,56.41031098365784,46,112,48,156,37,34,53,34,1
659,56.432799339294434,57,127,49,119,38,34,50,37,1
660,56.45522665977478,62,130,50,115,33,31,48,35,1
661,56.470069885253906,64,135,53,116,30,29,46,35,1
662,56.49300241470337,62,136,59,121,36,34,48,35,1
663,56.51551628112793,65,119,53,102,36,33,45,37,1
664,56.530381202697754,67,93,50,102,37,34,47,37,1
665,56.55312776565552,65,91,50,106,39,36,49,37,1
666,56.57551407814026,63,87,48,103,41,37,48,41,1
667,56.590378761291504,63,76,42,98,44,38,52,43,1
668,56.61294460296631,67,78,41,88,45,38,57,41,1
669,56.635541915893555,67,79,43,93,44,43,61,42,1
670,56.65027403831482,68,113,49,88,41,43,66,42,1
671,56.67292618751526,71,111,50,90,41,44,69,38,1
672,56.69575500488281,70,110,46,96,33,40,68,35,1
673,56.71030616760254,65,112,45,98,32,38,66,38,1
674,56.733341693878174,52,121,46,91,33,32,60,33,1
675,56.75542974472046,47,108,50,97,41,33,55,33,1
676,56.77089595794678,39,110,50,99,40,31,53,33,1
677,56.79308557510376,46,115,50,99,41,36,63,34,1
678,56.81539058685303,43,121,55,99,42,40,66,35,1
679,56.83036398887634,44,117,55,89,41,44,66,36,1
680,56.85465717315674,43,103,47,116,35,42,64,36,1
681,56.875408411026,48,101,46,119,37,41,70,34,1
682,56.8909068107605,44,104,47,110,36,42,61,35,1
683,56.912898540496826,49,104,41,144,37,40,60,32,1
684,56.936370849609375,53,108,40,160,39,36,66,33,1
685,56.95035791397095,58,111,45,142,43,42,74,35,1
686,56.97271656990051,54,110,44,139,44,48,75,36,1
687,56.99544334411621,53,100,43,151,41,44,72,37,1
688,57.010223150253296,59,106,53,117,41,43,72,38,1
689,57.03278064727783,56,138,58,101,39,44,65,38,1
690,57.055492639541626,52,139,57,95,36,43,62,36,1
691,57.07105588912964,54,141,57,94,31,37,53,39,1
692,57.092915534973145,53,145,59,74,36,38,55,37,1
693,57.11577105522156,48,137,52,90,34,39,52,36,1
694,57.12982654571533,49,108,46,90,36,39,53,37,1
695,57.161208391189575,50,104,42,88,36,37,45,39,1
696,57.18390250205994,50,104,46,91,38,37,46,37,1
697,57.1980402469635,54,129,54,97,34,38,45,39,1
698,57.21290159225464,51,131,55,100,39,42,46,42,1
699,57.23485803604126,48,117,53,103,37,40,49,41,1
700,57.25807213783264,55,129,56,103,37,43,54,39,1
701,57.2730176448822,55,134,57,106,35,46,52,40,1
702,57.29549217224121,55,111,48,105,37,45,57,39,1
703,57.31789255142212,51,111,47,94,33,40,54,35,1
704,57.33295249938965,50,114,48,90,33,42,50,36,1
705,57.35676956176758,43,104,49,111,31,37,54,39,1
706,57.37827014923096,47,96,52,106,32,32,66,37,1
707,57.393128395080566,55,99,55,113,33,33,64,36,1
708,57.41594076156616,59,88,54,128,34,35,66,36,1
709,57.43798232078552,70,123,68,137,35,41,67,40,1
710,57.45293712615967,69,116,63,122,32,41,58,35,1
711,57.475430727005005,66,118,62,122,32,41,44,35,1
712,57.49831676483154,59,115,59,120,27,42,45,36,1
713,57.51335024833679,57,121,61,95,27,42,49,35,1
714,57.535727739334106,43,83,45,79,34,37,54,34,1
715,57.55730223655701,46,98,46,101,37,39,68,33,1
716,57.5733859539032,51,105,43,127,37,40,67,35,1
717,57.5954167842865,51,109,45,120,38,38,65,34,1
718,57.61794662475586,54,106,44,120,37,37,62,38,1
719,57.797311782836914,68,108,45,145,34,32,51,33,1
720,57.81351947784424,71,115,45,146,34,32,52,33,1
721,57.83537554740906,70,133,48,111,34,33,53,33,1
722,57.85797953605652,59,134,47,111,29,32,48,32,1
723,57.872978925704956,40,124,46,100,34,32,48,32,1
724,57.89545798301697,39,104,39,87,33,28,42,31,1
725,57.91781234741211,38,108,45,84,29,29,55,33,1
726,57.932912826538086,39,105,48,81,31,36,56,38,1
727,59.081048250198364,47,101,44,87,36,34,49,42,1
728,59.10451650619507,45,100,48,106,42,38,40,42,1
729,59.117777824401855,45,101,51,110,42,38,44,43,1
730,59.141512870788574,44,102,55,101,41,39,46,45,1
731,59.16367840766907,49,69,45,101,43,40,47,43,1
732,59.17817163467407,49,64,48,116,49,40,48,43,1
733,59.2085657119751,55,61,48,103,52,38,49,43,1
734,59.22360348701477,61,73,45,103,49,38,46,40,1
735,59.23802375793457,61,81,42,104,50,37,48,39,1
736,59.26109838485718,56,84,42,100,46,33,48,38,1
737,59.283790826797485,63,96,41,75,40,30,46,37,1
738,59.29801678657532,65,102,41,79,34,28,49,36,1
739,59.32145023345947,60,91,40,107,36,28,55,37,1
740,59.34381031990051,62,92,42,116,36,34,58,36,1
741,59.35771870613098,58,90,47,119,41,38,58,37,1
742,59.38112115859985,55,69,46,129,40,41,58,38,1
743,59.411139488220215,50,75,44,124,38,44,56,37,1
744,59.41789269447327,52,74,42,96,40,44,49,37,1
745,59.44114589691162,51,62,39,91,38,39,43,36,1
746,59.463786125183105,52,62,34,112,32,40,39,36,1
747,59.47815752029419,49,69,34,101,32,41,42,31,1
748,59.501497983932495,53,79,42,103,32,38,41,32,1
749,59.5236291885376,51,85,44,99,28,37,39,34,1
750,59.53833818435669,50,87,44,95,32,38,39,34,1
751,59.56100416183472,55,87,44,71,32,34,47,32,1
752,59.58382749557495,55,94,46,103,35,30,47,33,1
753,59.59756302833557,49,77,36,107,33,32,50,34,1
754,59.62061333656311,47,70,39,118,36,32,50,31,1
755,59.643866300582886,47,68,41,126,39,31,54,33,1
756,59.658130168914795,41,75,39,128,42,31,47,38,1
757,59.68044948577881,38,67,36,102,41,34,48,37,1
758,59.70352506637573,36,62,36,102,42,34,45,41,1
759,59.71818709373474,41,62,33,93,41,33,45,40,1
760,59.74071407318115,38,68,35,88,36,33,39,37,1
761,59.763567209243774,39,59,36,140,35,32,45,34,1
762,59.77781391143799,42,54,37,148,36,28,46,35,1
763,59.80043697357178,41,79,41,142,37,30,48,30,1
764,59.82434916496277,40,86,44,154,35,33,53,36,1
765,59.83802390098572,42,84,42,193,36,37,58,38,1
766,59.86047124862671,40,85,44,164,37,38,54,38,1
767,59.88400983810425,36,82,42,158,35,41,52,38,1
768,59.89772152900696,38,62,40,162,33,39,57,38,1
769,59.920435667037964,37,52,34,159,34,38,54,35,1
770,59.943647623062134,43,51,34,111,31,35,52,33,1
771,59.95805382728577,43,47,31,102,28,37,52,31,1
772,59.981444120407104,49,57,35,107,32,40,55,34,1
773,60.00393080711365,51,58,35,118,38,42,51,38,1
774,60.025957345962524,52,60,34,128,38,40,49,35,1
775,60.04049062728882,50,57,37,126,41,42,52,41,1
776,60.06339645385742,48,61,35,121,43,41,51,43,1
777,60.086161375045776,43,60,35,130,42,35,47,39,1
778,60.10048484802246,48,61,35,137,42,33,46,36,1
779,60.12329816818237,50,66,35,121,43,35,50,38,1
780,60.14621067047119,46,68,35,122,40,30,47,33,1
781,60.16070580482483,50,68,37,129,37,28,53,33,1
782,60.183571100234985,56,70,51,117,36,30,60,36,1
783,60.20598340034485,51,65,58,93,32,30,65,40,1
784,60.220226764678955,48,63,60,91,30,33,75,40,1
785,60.24343538284302,48,62,65,128,35,33,77,40,1
786,60.26607298851013,49,62,65,124,36,35,78,39,1
787,60.280672788619995,40,55,53,140,33,33,71,38,1
788,60.30366563796997,40,63,48,140,36,33,73,36,1
789,60.32598686218262,41,60,45,139,35,32,59,35,1
790,60.3405704498291,48,59,37,101,31,34,54,36,1
791,60.36347937583923,44,58,36,99,36,37,48,34,1
792,60.38619351387024,47,55,40,85,37,39,47,34,1
793,60.39975190162659,53,56,38,79,38,39,47,37,1
794,60.424023151397705,54,57,37,71,39,37,47,37,1
795,60.446075677871704,52,56,35,123,43,36,47,35,1
796,60.46026873588562,57,53,37,142,41,31,49,38,1
797,60.483529806137085,57,58,33,139,42,30,55,44,1
798,60.506356954574585,52,48,32,139,38,28,50,42,1
799,60.52054953575134,52,55,41,147,41,28,51,43,1
800,60.54353094100952,50,55,41,150,44,31,53,44,1
801,60.566102027893066,51,56,41,141,47,35,58,43,1
802,60.580291509628296,52,57,43,137,47,35,53,37,1
803,60.60474228858948,51,56,44,164,48,38,48,35,1
804,60.62601923942566,54,52,39,174,44,39,58,33,1
805,60.64144730567932,59,52,38,140,41,39,63,33,1
806,60.66354823112488,57,51,35,132,35,38,59,33,1
807,60.68718123435974,53,44,30,135,35,36,59,35,1
808,60.70044493675232,51,40,29,107,35,35,60,37,1
809,60.72387909889221,55,33,26,86,42,37,59,42,1
810,60.74596834182739,53,38,30,90,46,41,57,39,1
811,60.76079034805298,53,40,29,110,45,41,60,40,1
812,60.78357672691345,62,39,31,118,47,43,63,36,1
813,60.80890870094299,64,39,29,117,46,41,62,33,1
814,60.82037854194641,68,54,38,120,54,46,63,27,1
815,60.843483686447144,78,54,42,127,56,45,62,33,1
816,60.86628532409668,77,55,45,113,55,46,60,35,1
817,60.88031840324402,71,55,44,105,55,46,67,45,1
818,60.904056549072266,79,59,47,109,58,70,87,51,1
819,60.92602205276489,71,50,41,111,46,70,87,52,1
820,60.94042921066284,60,46,35,107,37,68,85,50,1
821,60.963480949401855,60,42,33,105,40,69,84,48,1
822,60.98603558540344,61,44,33,113,47,69,82,40,1
823,61.00906252861023,58,39,31,116,49,47,70,34,1
824,61.02531623840332,62,38,32,117,50,40,71,35,1
825,61.04636812210083,59,39,31,108,50,40,71,34,1
826,61.068562030792236,59,44,30,135,49,40,74,35,1
827,61.08349132537842,61,41,29,145,41,39,80,33,1
828,61.10685658454895,53,41,31,139,36,38,71,32,1
829,61.128875494003296,44,41,29,128,32,42,68,32,1
830,61.143572092056274,46,39,33,130,38,43,67,35,1
831,61.166614294052124,44,33,34,112,36,49,71,39,1
832,61.1884241104126,35,33,36,131,38,48,61,38,1
833,61.20409870147705,32,33,35,129,41,58,66,42,1
834,61.22606420516968,33,31,35,134,40,56,68,43,1
835,61.25853896141052,31,29,31,138,36,55,68,41,1
836,61.26456642150879,35,32,36,135,43,53,64,36,1
837,61.28590130805969,35,34,33,91,43,53,63,38,1
838,61.30877208709717,36,36,34,99,38,41,56,34,1
839,61.32548189163208,37,36,33,93,38,42,53,33,1
840,61.34605598449707,38,37,32,93,37,40,49,34,1
841,61.36898493766785,34,37,30,118,35,35,44,35,1
842,61.38424110412598,36,37,31,121,40,36,47,35,1
843,61.405494689941406,36,34,30,123,40,39,47,37,1
844,61.42853784561157,39,33,31,121,45,37,41,36,1
845,61.44282865524292,43,33,34,164,45,39,51,36,1
846,61.4662811756134,49,32,34,148,47,39,54,34,1
847,61.48875021934509,49,32,34,157,45,37,51,33,1
848,61.50274729728699,51,31,34,153,46,34,54,32,1
849,61.52591252326965,50,32,34,182,44,31,57,30,1
850,61.54844903945923,48,30,35,149,43,28,50,31,1
851,61.562743186950684,45,29,33,155,36,26,46,31,1
852,61.58682918548584,45,28,32,143,33,30,47,32,1
853,61.60893654823303,41,34,31,157,31,32,42,31,1
854,61.63103437423706,40,33,34,166,29,32,38,29,1
855,61.64590406417847,42,36,32,168,32,35,45,30,1
856,61.66917276382446,39,38,32,160,34,37,46,30,1
857,61.682257652282715,40,40,35,162,34,33,44,28,1
858,61.70674180984497,42,36,35,174,33,31,46,30,1
859,61.728461503982544,46,36,36,144,38,30,46,30,1
860,61.74301886558533,40,37,35,130,35,27,36,28,1
861,61.76544404029846,38,37,36,133,33,26,36,28,1
862,61.788535833358765,36,34,36,148,35,27,35,29,1
863,61.80250024795532,35,34,38,142,38,27,38,26,1
864,61.82603573799133,37,46,35,141,35,30,36,30,1
865,61.84859251976013,41,44,34,143,35,31,39,33,1
866,61.871360301971436,43,43,34,139,37,38,42,35,1
867,61.885998487472534,49,46,39,129,40,38,45,34,1
868,61.9085636138916,51,48,37,100,36,39,46,39,1
869,61.93091940879822,45,35,35,94,36,38,48,41,1
870,61.94587016105652,44,40,37,93,39,40,49,40,1
871,61.968377351760864,45,40,36,96,39,34,49,41,1
872,61.99054718017578,43,36,29,123,33,33,46,41,1
873,62.00639224052429,41,35,31,125,37,32,39,37,1
874,62.02850842475891,41,42,34,123,35,31,37,36,1
875,62.051183462142944,41,37,35,125,35,26,33,35,1
876,62.06602764129639,43,38,35,126,43,31,31,34,1
877,62.08913564682007,38,39,35,125,47,32,31,35,1
878,62.11125922203064,37,38,34,122,48,32,30,36,1
879,62.12627840042114,38,30,34,122,51,36,33,33,1
880,62.14853596687317,38,36,36,122,52,38,36,34,1
881,62.171051025390625,34,34,35,136,47,35,34,32,1
882,62.18603801727295,34,35,33,116,43,36,42,32,1
883,62.208662271499634,36,36,35,112,41,35,45,31,1
884,62.23102593421936,34,35,32,109,36,32,41,32,1
885,62.24600124359131,29,27,30,104,34,30,40,31,1
886,62.268656730651855,29,28,31,112,33,30,41,32,1
887,62.29107165336609,30,26,31,103,37,29,36,32,1
888,62.3054678440094,33,28,32,99,39,31,37,32,1
889,62.32808780670166,34,30,32,98,41,34,42,31,1
890,62.351041316986084,34,32,30,107,40,34,41,29,1
891,62.365288496017456,39,32,30,77,39,33,45,31,1
892,62.38902449607849,46,34,32,75,43,35,51,32,1
893,62.41067171096802,44,30,33,79,44,33,48,31,1
894,62.42594385147095,46,30,34,78,47,32,46,33,1
895,62.44872856140137,50,35,37,65,53,38,53,36,1
896,62.470524311065674,51,40,38,64,54,42,54,32,1
897,62.65111541748047,31,24,30,80,36,32,34,36,1
898,62.66529941558838,32,27,32,96,35,31,35,35,1
899,62.68849992752075,30,26,31,91,33,33,36,34,1
900,62.71104145050049,30,24,30,92,36,33,34,35,1
901,62.72536897659302,37,27,31,93,41,36,39,29,1
902,64.13543272018433,42,31,27,57,23,22,38,28,1
903,64.15205359458923,42,32,29,49,25,24,39,29,1
904,64.17302179336548,37,35,29,52,23,23,37,29,1
905,64.19547080993652,41,38,30,63,33,27,36,26,1
906,64.2124707698822,40,37,30,86,36,30,42,26,1
907,64.23308658599854,41,38,28,84,40,34,48,31,1
908,64.2552318572998,47,39,34,93,38,37,53,34,1
909,64.27220273017883,50,36,34,105,38,40,54,39,1
910,64.29238486289978,47,37,37,107,37,40,55,40,1
911,64.31527519226074,46,38,37,93,38,39,51,42,1
912,64.33259701728821,45,39,38,98,35,35,44,39,1
913,64.35280513763428,44,49,35,102,35,32,36,37,1
914,64.37603569030762,42,54,34,97,40,32,37,30,1
915,64.394455909729,41,55,29,98,34,30,35,29,1
916,64.41309928894043,39,56,31,100,34,30,36,27,1
917,64.4352514743805,40,56,33,126,39,29,38,30,1
918,64.45340418815613,34,51,35,129,45,33,42,34,1
919,64.47286248207092,38,53,38,130,45,31,43,37,1
920,64.4953122138977,40,58,37,130,44,30,46,38,1
921,64.51300764083862,42,58,39,130,46,34,45,39,1
922,64.53285145759583,45,57,37,107,45,36,43,40,1
923,64.55517840385437,49,57,33,91,40,35,39,37,1
924,64.57242250442505,47,61,34,93,37,34,38,40,1
925,64.5924072265625,44,55,35,85,38,33,34,38,1
926,64.61495923995972,42,57,35,89,33,34,38,39,1
927,64.6318531036377,40,56,35,93,31,34,36,37,1
928,64.65276145935059,36,51,35,94,26,34,40,37,1
929,64.67544794082642,36,39,30,81,28,35,40,32,1
930,64.69433259963989,38,42,32,93,32,37,42,35,1
931,64.71317839622498,36,37,29,120,31,31,38,33,1
932,64.73549437522888,35,36,31,118,32,30,44,38,1
933,64.75120449066162,37,44,36,118,34,31,47,38,1
934,64.77391242980957,35,41,36,127,35,32,46,38,1
935,64.79642415046692,36,38,34,121,32,37,44,37,1
936,64.81777310371399,39,48,37,119,34,36,47,36,1
937,64.83277654647827,40,49,35,115,33,36,44,31,1
938,64.86268925666809,36,45,31,121,37,39,39,28,1
939,64.87800192832947,36,49,32,131,36,39,40,32,1
940,64.89274859428406,42,51,36,138,37,34,41,35,1
941,64.9148325920105,38,46,33,114,37,35,37,38,1
942,64.93738913536072,37,47,33,112,37,35,39,40,1
943,64.95270156860352,40,48,32,115,33,30,42,42,1
944,64.97553515434265,40,45,40,92,38,31,43,40,1
945,64.99782824516296,33,44,38,99,37,32,41,36,1
946,65.01402854919434,35,40,36,117,37,34,42,35,1
947,65.03569960594177,45,39,38,137,40,34,38,32,1
948,65.05782341957092,43,38,38,142,42,34,31,30,1
949,65.07278442382812,45,38,28,141,37,31,27,28,1
950,65.0962302684784,46,41,27,126,38,33,33,30,1
951,65.11778497695923,46,41,26,110,36,30,34,27,1
952,65.13264679908752,35,45,27,89,35,30,36,28,1
953,65.15516686439514,39,48,30,69,37,33,44,29,1
954,65.17866039276123,40,49,30,89,38,33,44,30,1
955,65.193030834198,42,44,31,92,37,31,40,31,1
956,65.21534967422485,43,44,33,98,39,32,41,35,1
957,65.23781728744507,44,39,31,96,37,31,43,34,1
958,65.25286746025085,44,36,27,109,33,32,39,33,1
959,65.2753415107727,42,38,28,102,33,31,40,35,1
960,65.29757070541382,38,37,28,115,37,29,40,33,1
961,65.3127908706665,37,36,27,115,35,28,40,31,1
962,65.33518075942993,37,36,26,121,35,28,37,32,1
963,65.35816621780396,32,34,27,124,35,27,35,31,1
964,65.37300610542297,33,30,34,132,36,28,37,31,1
965,65.39534211158752,34,31,34,122,31,28,39,33,1
966,65.41841650009155,37,31,34,120,30,31,38,31,1
967,65.43282270431519,35,31,38,114,32,30,41,31,1
968,65.45617842674255,38,31,40,102,32,28,44,31,1
969,65.47798919677734,42,31,34,93,31,26,42,28,1
970,65.49345016479492,46,32,37,122,33,27,44,26,1
971,65.51515007019043,44,32,36,116,33,23,46,27,1
972,65.53715372085571,46,31,36,113,35,26,42,28,1
973,65.55275249481201,44,32,36,110,34,26,38,27,1
974,65.57598090171814,39,32,35,111,35,27,40,28,1
975,65.59788799285889,33,30,32,86,34,30,35,28,1
976,65.61350655555725,33,28,34,95,36,29,31,32,1
977,65.63483929634094,33,32,36,94,34,27,30,37,1
978,65.65719246864319,33,32,36,96,34,27,34,38,1
979,65.68031716346741,34,32,35,95,33,26,33,38,1
980,65.69549322128296,40,35,35,116,36,23,42,40,1
981,65.7179262638092,40,38,36,115,38,29,47,37,1
982,65.74024057388306,40,35,32,119,35,29,46,32,1
983,65.76262164115906,41,34,34,132,35,31,44,32,1
984,65.77809572219849,44,35,35,130,36,33,48,31,1
985,65.80028700828552,42,41,38,102,32,33,43,30,1
986,65.81540966033936,45,40,36,136,32,32,40,31,1
987,65.83775496482849,45,41,36,144,33,32,43,30,1
988,65.86875796318054,46,40,35,132,32,31,46,29,1
989,65.87579274177551,44,46,37,133,32,29,40,31,1
990,65.89737129211426,43,39,32,132,31,29,38,28,1
991,65.92030191421509,41,41,33,109,30,28,38,30,1
992,65.93519425392151,41,41,36,93,33,27,34,31,1
993,65.96599531173706,39,40,33,93,33,28,30,33,1
994,65.98032522201538,44,43,35,87,33,31,34,34,1
995,65.99539017677307,41,44,37,111,35,31,37,36,1
996,66.01761245727539,43,42,35,110,34,30,37,33,1
997,66.03981018066406,41,40,34,121,35,30,42,37,1
998,66.05533766746521,40,44,37,121,38,32,44,35,1
999,66.0778226852417,37,34,33,122,37,30,42,32,1
1000,66.10061049461365,41,33,35,103,36,29,42,32,1
1001,66.11540389060974,36,31,34,88,34,27,41,35,1
1002,66.13752365112305,37,32,32,74,30,31,39,32,1
1003,66.15982413291931,39,29,29,71,26,29,39,35,1
1004,66.17577004432678,37,34,31,67,26,28,38,37,1
1005,66.19778680801392,33,34,29,89,28,30,39,37,1
1006,66.22030973434448,36,35,31,92,30,31,40,34,1
1007,66.23525476455688,38,35,32,87,30,30,37,31,1
1008,66.25845432281494,38,34,33,89,29,28,35,30,1
