,time,chanel1,chanel2,chanel3,chanel4,chanel5,chanel6,chanel7,chanel8,position
0,13.396791696548462,49,67,89,86,33,33,51,33,1
1,13.41830825805664,45,63,82,82,35,31,41,32,1
2,13.434704780578613,52,73,95,63,37,31,43,34,1
3,13.456766843795776,51,77,104,76,40,28,44,36,1
4,13.477444171905518,50,72,99,72,40,28,43,36,1
5,13.500178575515747,49,74,92,74,40,26,41,35,1
6,13.517001628875732,52,76,95,89,38,27,44,39,1
7,13.540192127227783,47,68,84,85,36,29,42,37,1
8,13.559883832931519,44,59,67,75,32,29,38,36,1
9,13.57692289352417,43,55,57,80,30,29,41,35,1
10,13.605273008346558,50,61,68,84,29,32,45,39,1
11,13.619961977005005,51,63,70,73,31,34,46,35,1
12,13.636787414550781,50,63,72,82,32,33,45,34,1
13,13.660088539123535,51,68,80,82,34,34,47,33,1
14,13.680332660675049,52,69,82,82,35,36,48,34,1
15,13.696929454803467,44,59,75,83,34,34,48,30,1
16,13.71735668182373,45,62,78,82,36,31,43,31,1
17,13.742208242416382,47,62,79,82,39,32,48,30,1
18,13.7576584815979,47,58,72,89,37,30,47,30,1
19,13.779213666915894,43,59,77,88,37,28,44,26,1
20,13.799839496612549,45,64,81,105,38,31,43,27,1
21,13.817025661468506,42,57,79,102,39,32,45,28,1
22,13.83755612373352,41,58,77,93,36,33,42,35,1
23,13.859991312026978,46,60,80,109,37,34,47,36,1
24,13.876806735992432,45,56,76,108,36,33,45,36,1
25,13.897918462753296,50,55,77,92,35,31,45,38,1
26,13.919837951660156,54,63,87,118,33,34,44,36,1
27,13.936673641204834,55,62,83,119,33,34,45,34,1
28,13.957358598709106,55,61,81,99,31,31,42,39,1
29,13.979913473129272,57,64,81,105,32,32,46,40,1
30,13.997524738311768,56,64,80,102,41,32,50,38,1
31,14.017431497573853,58,61,73,92,39,29,53,38,1
32,14.041152238845825,59,61,76,95,39,31,56,36,1
33,14.057767152786255,54,59,73,102,39,31,55,28,1
34,14.077714681625366,54,64,70,93,40,33,51,32,1
35,14.099953651428223,54,64,67,96,35,35,54,34,1
36,14.118123292922974,48,56,52,83,36,33,54,33,1
37,14.137827157974243,45,55,50,81,35,31,50,33,1
38,14.16741156578064,47,56,56,74,38,34,54,34,1
39,14.176647663116455,51,56,65,93,43,32,56,33,1
40,14.197412967681885,46,55,66,108,39,31,49,29,1
41,14.220041513442993,47,60,73,110,36,31,47,29,1
42,14.236981391906738,49,62,72,111,39,31,51,29,1
43,14.25710678100586,53,62,70,115,37,32,49,30,1
44,14.280044317245483,52,61,68,98,31,34,51,30,1
45,14.302383184432983,55,62,67,82,31,33,53,32,1
46,14.324933290481567,51,60,62,87,29,33,50,31,1
47,14.339869737625122,51,60,62,83,26,33,48,33,1
48,14.362119674682617,49,70,68,88,35,34,50,33,1
49,14.385756015777588,53,77,80,113,39,34,53,32,1
50,14.40000605583191,54,79,87,118,44,38,57,32,1
51,14.422339677810669,55,79,97,111,49,37,58,32,1
52,14.444971084594727,55,79,99,119,50,37,59,30,1
53,14.460051774978638,53,71,94,111,46,36,56,28,1
54,14.482807636260986,45,58,80,92,41,32,47,25,1
55,14.50493836402893,47,61,86,92,41,31,47,32,1
56,14.520202159881592,54,69,83,113,38,34,49,33,1
57,14.542335271835327,54,71,82,119,37,34,48,32,1
58,14.56534457206726,52,68,81,118,36,32,47,32,1
59,14.579983949661255,53,72,88,122,37,32,46,35,1
60,14.60246467590332,53,73,90,128,31,31,45,29,1
61,14.625181674957275,48,68,82,106,32,29,47,29,1
62,14.640191316604614,52,68,85,102,31,31,52,32,1
63,14.662359476089478,54,73,97,120,30,30,54,33,1
64,14.68533182144165,55,74,97,119,38,33,62,33,1
65,14.70034384727478,49,65,86,111,39,30,59,33,1
66,14.722013235092163,45,60,85,115,38,30,57,31,1
67,14.744978189468384,41,60,89,124,39,28,53,30,1
68,14.759939193725586,39,55,87,115,40,29,55,29,1
69,14.782764673233032,40,56,88,106,33,28,50,25,1
70,14.80453109741211,50,67,86,102,33,29,53,26,1
71,14.819489002227783,52,71,93,105,32,30,53,26,1
72,14.842260122299194,52,68,85,87,30,30,52,25,1
73,14.86485505104065,52,69,79,105,33,31,47,29,1
74,14.879842519760132,62,78,81,116,35,36,52,36,1
75,14.902642726898193,58,70,89,115,37,38,49,36,1
76,14.924853563308716,61,71,84,116,37,38,48,37,1
77,14.947391033172607,62,72,87,123,38,38,48,40,1
78,14.962746858596802,62,69,86,114,35,37,48,39,1
79,14.985319137573242,51,58,82,149,33,31,44,33,1
80,15.007534980773926,47,55,84,153,35,31,47,32,1
81,15.02237606048584,46,50,80,153,35,28,47,30,1
82,15.045041799545288,53,58,88,154,38,32,51,27,1
83,15.067434549331665,53,63,101,153,38,34,54,26,1
84,15.082512140274048,52,59,100,113,37,36,53,25,1
85,15.10493803024292,58,65,97,114,36,35,49,28,1
86,15.127416372299194,54,63,102,112,36,36,47,28,1
87,15.142561197280884,48,56,96,105,32,31,41,31,1
88,15.165115118026733,47,55,83,107,34,31,42,31,1
89,15.18747591972351,55,58,90,123,35,31,45,33,1
90,15.202536582946777,52,53,85,122,35,31,46,32,1
91,15.224924325942993,55,58,85,117,37,35,50,33,1
92,15.247439861297607,52,56,79,112,37,34,48,31,1
93,15.262390375137329,52,51,78,105,37,36,47,30,1
94,15.284887552261353,54,62,83,90,48,37,44,31,1
95,15.307676315307617,56,73,94,94,50,37,42,38,1
96,15.322264432907104,58,77,102,121,53,35,49,39,1
97,15.34497880935669,64,90,122,136,57,43,53,42,1
98,15.367541313171387,65,91,120,132,57,41,52,43,1
99,15.382763147354126,60,84,118,151,53,39,51,42,1
100,15.404929399490356,63,88,118,149,54,39,53,41,1
101,15.42769980430603,61,84,111,127,50,37,43,39,1
102,15.442343473434448,60,76,91,119,46,29,43,37,1
103,15.465100765228271,60,79,101,125,44,29,42,38,1
104,15.487805604934692,62,81,91,107,39,29,45,38,1
105,15.502645254135132,63,77,91,96,35,32,50,35,1
106,15.524898767471313,64,79,96,100,39,36,54,34,1
107,15.54752516746521,61,75,95,98,40,35,54,32,1
108,15.562655448913574,61,72,85,92,39,34,53,30,1
109,15.585262298583984,62,71,84,84,35,35,53,31,1
110,15.607383251190186,52,57,78,117,35,31,48,28,1
111,15.622966051101685,49,52,71,117,29,25,41,27,1
112,15.64500880241394,51,55,73,117,30,29,45,29,1
113,15.66752004623413,53,62,87,136,35,30,45,31,1
114,15.682502508163452,50,58,91,142,38,30,46,28,1
115,15.705207347869873,52,61,88,121,37,32,42,30,1
116,15.727314949035645,51,60,86,126,38,35,44,30,1
117,15.742420434951782,50,64,90,123,40,35,43,28,1
118,15.764892578125,47,60,87,101,35,34,47,27,1
119,15.78748607635498,43,59,80,103,33,33,43,30,1
120,15.802517890930176,46,65,92,99,36,32,47,31,1
121,15.825070142745972,50,70,93,89,35,31,47,32,1
122,15.847462892532349,48,68,87,94,31,32,49,35,1
123,15.863899946212769,48,67,79,119,36,35,50,36,1
124,15.885014533996582,46,63,77,115,37,34,50,32,1
125,15.90736436843872,39,52,57,117,32,33,49,31,1
126,15.931912422180176,40,52,69,129,34,34,49,31,1
127,15.944984436035156,40,51,73,141,37,32,48,27,1
128,15.967401027679443,37,49,69,117,35,31,42,29,1
129,15.99056887626648,41,53,75,109,35,32,44,31,1
130,16.005059480667114,44,57,85,115,35,33,43,30,1
131,16.027628421783447,45,56,84,133,35,35,48,31,1
132,16.051311492919922,50,65,90,123,37,35,47,33,1
133,16.064841508865356,51,67,90,138,35,34,50,29,1
134,16.087427139282227,52,71,97,146,37,35,54,27,1
135,16.110692977905273,52,73,97,141,37,36,55,29,1
136,16.12491798400879,47,69,88,122,35,32,50,28,1
137,16.147470712661743,39,57,77,112,30,30,46,25,1
138,16.17061972618103,43,59,87,100,32,31,46,25,1
139,16.185245752334595,45,56,81,103,33,30,44,27,1
140,16.20777201652527,45,55,76,102,34,28,41,28,1
141,16.23061442375183,46,56,77,93,38,28,44,28,1
142,16.245062828063965,45,53,77,114,37,27,44,29,1
143,16.26796293258667,42,49,68,111,37,26,46,29,1
144,16.290583848953247,37,50,69,102,34,25,41,30,1
145,16.305824756622314,36,49,60,109,36,26,46,30,1
146,16.32707190513611,37,53,62,119,34,25,45,31,1
147,16.350049257278442,44,63,72,112,37,31,46,35,1
148,16.364461660385132,42,62,70,111,36,32,42,36,1
149,16.387877941131592,45,62,70,108,36,35,48,37,1
150,16.410804510116577,57,69,80,99,37,39,52,37,1
151,16.425808429718018,63,73,86,97,37,39,53,38,1
152,16.44751739501953,64,80,87,99,34,38,56,35,1
153,16.4706928730011,65,80,89,96,33,37,54,34,1
154,16.48500633239746,66,81,94,102,34,36,58,34,1
155,16.507481336593628,58,77,91,129,31,32,51,34,1
156,16.530967950820923,51,72,82,132,27,31,49,31,1
157,16.54492211341858,47,63,82,127,28,30,47,31,1
158,16.56740665435791,52,73,92,137,35,37,60,32,1
159,16.59068250656128,53,77,87,132,35,35,56,33,1
160,16.60498833656311,62,80,89,117,37,37,58,37,1
161,16.627428770065308,64,82,94,107,38,39,60,39,1
162,16.650660753250122,63,77,88,99,37,37,57,38,1
163,16.664994478225708,60,70,78,89,32,30,46,37,1
164,16.68734383583069,55,62,71,87,32,29,41,33,1
165,16.71067237854004,43,52,64,86,30,27,36,27,1
166,16.724896669387817,41,51,64,101,34,25,37,26,1
167,16.747363567352295,39,53,63,106,34,25,38,27,1
168,16.770962476730347,38,53,63,105,35,27,46,30,1
169,16.784910202026367,47,64,71,121,37,29,55,32,1
170,16.815922021865845,48,67,75,120,37,29,56,32,1
171,16.831211805343628,56,72,79,102,36,34,58,34,1
172,16.85319685935974,56,70,77,106,37,33,57,34,1
173,16.867597103118896,55,66,76,109,35,33,51,33,1
174,16.89066743850708,46,55,72,94,32,30,41,31,1
175,16.913259744644165,46,51,69,92,37,30,39,30,1
176,16.927680015563965,37,40,65,99,34,27,33,27,1
177,16.950669050216675,37,43,65,92,31,26,33,26,1
178,16.97302746772766,42,49,70,111,34,27,40,25,1
179,16.995559215545654,41,48,70,117,33,30,42,29,1
180,17.01129126548767,41,50,74,117,31,31,47,29,1
181,17.033490419387817,41,52,78,124,33,30,49,29,1
182,17.047581911087036,40,49,78,120,34,31,49,31,1
183,17.070902824401855,36,47,83,105,33,30,45,31,1
184,17.094520330429077,36,47,86,104,35,28,44,30,1
185,17.10772156715393,33,47,84,100,30,26,38,29,1
186,17.13033175468445,46,62,105,142,35,34,58,31,1
187,17.152597665786743,50,66,109,150,38,35,58,29,1
188,17.16698408126831,50,66,105,156,37,33,59,30,1
189,17.190659284591675,51,68,106,164,36,32,59,27,1
190,17.212742567062378,55,70,106,162,37,34,63,28,1
191,17.226827383041382,45,59,80,114,30,25,47,25,1
192,17.251261234283447,46,61,75,116,27,24,48,27,1
193,17.272777795791626,58,81,97,107,33,32,55,28,1
194,17.28703260421753,63,84,98,96,35,36,62,31,1
195,17.31062126159668,63,86,97,104,36,36,60,35,1
196,17.333532333374023,63,83,100,115,39,36,57,36,1
197,17.348052263259888,59,78,101,107,41,37,56,38,1
198,17.370697736740112,50,61,80,104,36,32,48,37,1
199,17.392812252044678,43,53,77,92,33,28,36,34,1
200,17.407366275787354,43,50,78,85,30,26,37,29,1
201,17.429935455322266,40,48,73,69,24,27,35,26,1
202,17.45297336578369,42,51,74,68,23,27,39,23,1
203,17.467594861984253,37,46,71,88,25,30,41,25,1
204,17.49073815345764,37,47,68,89,27,30,42,27,1
205,17.513240337371826,38,50,68,82,27,30,44,28,1
206,17.52754855155945,45,58,70,103,32,31,46,29,1
207,17.55001401901245,47,62,64,102,31,32,44,28,1
208,17.573144912719727,50,64,70,93,32,31,43,27,1
209,17.587360620498657,50,64,70,101,33,29,43,25,1
210,17.610247135162354,46,58,69,108,35,32,39,25,1
211,17.633461713790894,45,52,66,94,34,30,39,26,1
212,17.647295475006104,48,55,72,109,34,32,49,27,1
213,17.66991424560547,47,54,73,111,30,30,48,27,1
214,17.69308853149414,45,55,71,120,31,31,49,29,1
215,17.708008766174316,48,58,72,124,30,29,47,29,1
216,17.730347871780396,47,58,71,125,31,28,48,28,1
217,17.752692937850952,42,54,68,119,34,24,37,26,1
218,17.766906261444092,38,52,62,112,36,25,38,26,1
219,17.79019045829773,43,60,70,105,37,26,40,30,1
220,17.81308627128601,42,63,78,99,41,28,49,31,1
221,17.835566997528076,45,67,86,101,42,32,53,31,1
222,17.849905490875244,46,67,86,90,41,34,54,34,1
223,17.87328839302063,47,66,84,83,41,33,55,35,1
224,17.895537614822388,45,60,81,83,37,32,52,32,1
225,17.909888982772827,50,59,78,100,39,37,59,38,1
226,17.933168649673462,56,74,101,112,42,37,58,41,1
227,17.955615520477295,57,75,107,117,41,37,61,40,1
228,17.969948768615723,61,81,112,118,42,40,61,40,1
229,17.99260902404785,62,82,116,120,43,39,61,39,1
230,18.01592469215393,59,81,114,112,35,35,51,32,1
231,18.030022621154785,49,61,84,100,28,31,49,27,1
232,18.053187608718872,47,61,85,97,31,32,49,28,1
233,18.0757098197937,44,64,98,126,33,31,47,27,1
234,18.090294361114502,42,60,90,117,33,30,48,30,1
235,18.113116979599,39,57,92,124,34,30,48,32,1
236,18.1355881690979,51,70,100,128,38,33,54,35,1
237,18.15056800842285,52,73,95,131,34,32,52,36,1
238,18.173103094100952,55,73,91,144,36,32,57,40,1
239,18.1958065032959,57,76,91,150,38,38,59,40,1
240,18.209965467453003,62,83,99,147,42,39,59,41,1
241,18.23350167274475,57,79,95,146,41,40,60,39,1
242,18.255850315093994,55,73,91,158,41,40,57,37,1
243,18.269866228103638,52,73,102,145,40,40,54,38,1
244,18.2932231426239,50,71,104,142,37,36,50,36,1
245,18.31596040725708,47,65,94,142,35,35,52,33,1
246,18.330005407333374,42,57,91,135,33,32,42,33,1
247,18.353516817092896,44,61,102,129,38,34,47,34,1
248,18.375610828399658,43,53,90,119,36,34,44,27,1
249,18.390043020248413,45,56,93,120,38,35,45,29,1
250,18.413483381271362,47,56,91,116,37,33,41,30,1
251,18.43562126159668,52,62,96,131,40,35,49,29,1
252,18.449898958206177,51,59,84,122,35,31,46,27,1
253,18.47312617301941,51,61,74,113,36,28,45,28,1
254,18.495673418045044,58,69,94,117,38,29,48,28,1
255,18.50993013381958,56,72,95,113,37,28,48,27,1
256,18.533228874206543,61,75,103,106,48,32,50,31,1
257,18.555687427520752,63,79,115,112,49,35,52,32,1
258,18.570068359375,65,78,112,114,50,37,54,40,1
259,18.59319806098938,60,75,103,129,49,37,56,39,1
260,18.615870237350464,60,75,108,127,48,37,56,39,1
261,18.629866123199463,62,88,115,128,38,35,54,40,1
262,18.653238773345947,63,91,103,118,37,34,53,40,1
263,18.675618171691895,61,88,106,132,38,33,53,34,1
264,18.68997097015381,59,88,97,127,37,33,49,34,1
265,18.713486671447754,59,84,92,128,38,32,50,32,1
266,18.735764265060425,48,60,66,120,33,30,47,28,1
267,18.758182764053345,49,63,88,150,39,31,49,28,1
268,18.77324080467224,49,61,86,132,35,28,50,30,1
269,18.79571223258972,55,69,93,138,37,32,54,34,1
270,18.818141222000122,55,70,100,143,40,33,52,35,1
271,18.833374500274658,54,71,100,145,40,31,50,37,1
272,18.86342740058899,50,61,81,123,34,30,45,36,1
273,18.878928422927856,54,65,80,123,33,30,45,33,1
274,18.89319086074829,46,51,78,128,32,26,37,28,1
275,18.915569067001343,44,49,72,117,27,23,37,29,1
276,18.938342094421387,46,55,77,112,29,24,39,31,1
277,18.95327401161194,47,56,84,123,32,26,44,31,1
278,18.97558045387268,43,54,81,126,31,26,43,34,1
279,18.997721433639526,47,59,76,99,28,29,49,36,1
280,19.01249098777771,46,57,73,123,30,29,48,35,1
281,19.03636622428894,49,54,67,131,30,30,55,34,1
282,19.058106184005737,49,60,64,123,26,28,53,33,1
283,19.07240653038025,53,62,72,130,30,30,56,35,1
284,19.095577239990234,54,63,68,132,34,30,56,36,1
285,19.11825132369995,55,68,74,124,35,32,56,36,1
286,19.132401704788208,52,68,78,114,35,31,50,35,1
287,19.15591597557068,57,68,81,108,36,34,51,37,1
288,19.17858600616455,59,70,97,138,41,33,47,34,1
289,19.193110704421997,55,66,99,144,38,30,43,33,1
290,19.216114282608032,58,70,116,150,41,31,46,36,1
291,19.238093852996826,60,73,120,160,45,34,49,36,1
292,19.252808094024658,53,67,114,162,45,32,48,34,1
293,19.275564670562744,49,60,96,125,41,31,48,38,1
294,19.298084497451782,54,65,98,114,45,35,52,39,1
295,19.313230991363525,50,59,72,98,47,34,54,37,1
296,19.33598017692566,47,56,65,101,43,32,53,36,1
297,19.358124494552612,56,69,87,97,44,34,53,38,1
298,19.372424840927124,56,72,95,101,46,36,56,33,1
299,19.395187616348267,51,71,97,110,43,35,54,31,1
300,19.41870093345642,56,76,106,107,37,35,53,28,1
301,19.432848930358887,59,76,111,92,39,35,56,30,1
302,19.455218076705933,54,71,100,105,40,34,56,28,1
303,19.478197813034058,54,72,94,109,34,32,52,29,1
304,19.492393255233765,60,69,86,106,33,33,60,31,1
305,19.515548706054688,60,73,80,108,35,36,64,32,1
306,19.538126230239868,61,76,75,120,31,38,64,34,1
307,19.552380561828613,66,80,82,114,32,40,74,36,1
308,19.57595682144165,67,80,83,116,36,40,79,36,1
309,19.605597257614136,61,82,91,144,39,38,69,36,1
310,19.6125705242157,56,74,89,142,38,35,69,38,1
311,19.635672330856323,53,71,85,137,39,35,65,36,1
312,19.658541679382324,47,64,79,150,39,33,53,34,1
313,19.680816888809204,50,72,90,156,40,38,52,37,1
314,19.69574213027954,53,74,84,148,41,41,57,39,1
315,19.718089818954468,57,81,89,154,51,42,55,38,1
316,19.740907430648804,54,79,94,150,50,39,55,37,1
317,19.755892038345337,58,85,103,146,49,41,58,41,1
318,19.778064012527466,54,78,92,132,48,34,52,37,1
319,19.801044464111328,58,89,107,114,47,33,47,38,1
320,19.815619230270386,58,87,105,126,38,33,44,38,1
321,19.83808922767639,61,89,104,144,39,38,45,40,1
322,19.861534357070923,60,87,93,143,39,37,42,38,1
323,19.87569260597229,63,91,99,144,39,40,44,38,1
324,19.898624897003174,55,74,77,144,36,38,47,33,1
325,19.920588970184326,54,76,111,143,37,37,45,32,1
326,19.935547351837158,53,78,115,143,39,37,46,31,1
327,19.958205938339233,49,71,117,177,36,35,50,28,1
328,19.980886697769165,48,70,120,198,37,32,53,30,1
329,19.99493646621704,53,72,121,197,38,34,55,31,1
330,20.018633604049683,54,66,94,189,39,37,68,31,1
331,20.04058814048767,58,69,97,205,42,38,72,32,1
332,20.05552840232849,63,73,98,173,48,40,71,37,1
333,20.078262329101562,62,72,94,154,48,42,77,37,1
334,20.10079312324524,60,75,95,149,48,44,75,38,1
335,20.11483931541443,59,72,93,145,52,45,66,37,1
336,20.13838219642639,71,93,117,144,51,43,67,38,1
337,20.160669088363647,66,91,121,146,48,41,64,35,1
338,20.174871683120728,69,88,117,147,48,41,57,35,1
339,20.198187351226807,67,84,119,152,46,38,54,33,1
340,20.22076964378357,65,84,125,171,41,32,50,31,1
341,20.23525834083557,49,59,117,176,42,30,49,29,1
342,20.25926971435547,58,67,120,183,40,36,59,27,1
343,20.280856370925903,52,63,127,187,37,33,61,24,1
344,20.294951677322388,57,71,138,207,39,38,66,27,1
345,20.318108797073364,57,68,129,231,41,40,70,27,1
346,20.34085178375244,54,63,123,218,36,41,75,28,1
347,20.355105876922607,47,57,120,226,38,39,70,36,1
348,20.378419160842896,47,57,109,222,39,40,67,38,1
349,20.400563955307007,42,50,113,220,38,36,65,37,1
350,20.415008068084717,44,51,116,183,33,35,67,38,1
351,20.43952488899231,44,51,105,174,32,37,62,36,1
352,20.46064829826355,41,55,106,152,34,35,58,29,1
353,20.474892139434814,60,85,133,150,38,36,61,31,1
354,20.498566150665283,60,87,119,133,39,38,61,31,1
355,20.52154040336609,59,87,115,128,40,36,54,31,1
356,20.53452754020691,60,89,122,120,37,34,49,32,1
357,20.558402061462402,61,88,116,112,35,37,63,35,1
358,20.580705881118774,45,63,91,132,33,33,60,31,1
359,20.59494113922119,49,61,92,126,31,31,59,32,1
360,20.61807894706726,53,64,98,135,30,32,64,33,1
361,20.64069175720215,51,61,87,149,35,34,67,32,1
362,20.66244411468506,49,55,81,146,34,30,55,29,1
363,20.67959427833557,51,59,79,125,33,31,55,32,1
364,20.700172901153564,48,59,85,156,37,31,57,32,1
365,20.722488403320312,45,55,81,152,37,35,55,32,1
366,20.74124050140381,51,61,94,166,35,37,58,33,1
367,20.75976848602295,52,66,101,180,36,39,64,33,1
368,20.782636642456055,52,62,107,191,37,38,67,29,1
369,20.799283027648926,50,62,105,181,36,38,65,30,1
370,20.819961547851562,55,69,115,186,41,36,64,31,1
371,20.842066526412964,48,61,102,163,39,31,56,29,1
372,20.8589768409729,48,63,102,165,41,29,51,29,1
373,20.879876613616943,51,69,120,160,44,35,47,29,1
374,20.902509212493896,52,72,121,144,43,34,45,30,1
375,20.919578075408936,49,71,122,149,43,33,42,26,1
376,20.9399676322937,52,81,136,172,44,33,43,32,1
377,20.962442636489868,50,76,139,178,42,31,41,30,1
378,20.979127168655396,42,69,121,175,36,27,39,32,1
379,21.000000715255737,52,68,118,175,43,35,53,31,1
380,21.022445917129517,54,69,118,181,37,36,59,33,1
381,21.039632558822632,54,62,101,156,36,37,62,33,1
382,21.059482097625732,54,63,92,134,35,38,64,35,1
383,21.082065105438232,58,66,86,136,35,38,64,36,1
384,21.10001277923584,52,61,93,163,28,31,57,34,1
385,21.120086908340454,50,64,94,161,31,34,55,36,1
386,21.14260721206665,51,63,91,164,33,35,52,34,1
387,21.158965826034546,53,61,87,162,32,36,52,34,1
388,21.179771661758423,49,57,96,160,33,33,57,34,1
389,21.203608989715576,61,88,116,150,35,42,67,37,1
390,21.218870401382446,59,79,105,130,34,38,61,33,1
391,21.23972749710083,57,78,108,141,32,38,68,35,1
392,21.262499809265137,55,83,115,145,33,39,67,35,1
393,21.282270669937134,56,85,133,151,36,41,69,32,1
394,21.300048351287842,39,52,113,154,32,31,60,29,1
395,21.322384357452393,46,65,115,161,30,34,69,31,1
396,21.33911418914795,48,70,113,155,33,33,63,30,1
397,21.36128544807434,48,66,110,153,31,32,60,30,1
398,21.382965803146362,45,64,80,157,27,32,52,31,1
399,21.400584936141968,56,74,93,151,33,34,54,32,1
400,21.42009472846985,52,72,100,152,35,31,46,31,1
401,21.442347764968872,50,69,109,147,34,31,46,30,1
402,21.459139823913574,50,67,113,145,35,30,51,29,1
403,21.480225563049316,62,76,115,151,39,34,62,31,1
404,21.502793073654175,54,68,99,135,37,32,56,30,1
405,21.52518105506897,53,61,87,121,36,31,56,31,1
406,21.539530992507935,53,61,74,127,36,30,55,30,1
407,21.561890125274658,53,63,86,145,38,32,54,32,1
408,21.585089683532715,47,58,87,139,35,31,53,32,1
409,21.5999276638031,47,58,88,155,33,31,52,32,1
410,21.622381687164307,47,56,99,163,32,35,56,30,1
411,21.645246982574463,47,55,105,155,30,36,57,35,1
412,21.65974473953247,48,61,93,154,27,33,55,34,1
413,21.682950735092163,46,59,96,162,27,30,46,33,1
414,21.70494771003723,47,60,96,143,29,33,50,36,1
415,21.71933150291443,47,63,89,165,36,30,48,36,1
416,21.7422354221344,46,65,85,202,36,29,48,30,1
417,21.765039920806885,44,56,81,197,37,28,48,29,1
418,21.779953956604004,36,50,70,186,34,26,45,27,1
419,21.802354335784912,39,52,72,197,33,23,44,25,1
420,21.82516312599182,38,49,64,179,27,22,42,28,1
421,21.841652393341064,35,43,79,161,28,22,40,27,1
422,21.862361907958984,35,42,88,212,27,25,43,27,1
423,21.885080575942993,36,46,87,208,27,26,46,29,1
424,21.901962757110596,32,41,84,202,25,28,52,27,1
425,21.922054052352905,32,41,93,197,23,28,51,26,1
426,21.94486141204834,39,46,78,185,22,29,52,28,1
427,21.961735010147095,43,51,75,133,23,27,47,29,1
428,21.982285737991333,47,54,86,127,26,28,53,30,1
429,22.004971027374268,57,70,107,123,32,30,51,33,1
430,22.021772623062134,59,72,103,130,33,33,55,33,1
431,22.042496919631958,57,71,103,121,35,36,61,33,1
432,22.064821004867554,58,71,108,124,38,37,65,33,1
433,22.08173394203186,59,71,111,183,43,39,73,31,1
434,22.102362632751465,50,56,92,186,39,37,68,29,1
435,22.124816417694092,53,59,102,181,40,36,68,28,1
436,22.143490314483643,55,66,111,184,42,36,65,27,1
437,22.162618398666382,52,64,104,169,39,36,64,29,1
438,22.185344457626343,55,67,96,106,33,34,53,34,1
439,22.202447652816772,57,69,100,105,35,34,53,33,1
440,22.222363471984863,57,70,91,105,37,42,67,35,1
441,22.24481439590454,56,62,94,130,36,39,67,37,1
442,22.2624294757843,61,75,98,167,36,43,75,41,1
443,22.282561540603638,54,67,101,172,39,42,75,37,1
444,22.304909467697144,51,64,94,167,37,42,76,38,1
445,22.32165837287903,49,63,103,211,45,33,67,39,1
446,22.34283208847046,46,61,91,197,43,37,68,37,1
447,22.365274667739868,41,51,98,169,44,34,60,36,1
448,22.382493019104004,45,59,111,230,41,34,58,36,1
449,22.402096271514893,53,71,127,247,45,39,67,34,1
450,22.42440128326416,63,84,147,235,39,42,78,34,1
451,22.442270517349243,64,87,150,237,42,39,77,37,1
452,22.462416887283325,62,85,141,244,39,36,74,33,1
453,22.485173225402832,66,90,133,187,42,39,79,36,1
454,22.50181245803833,63,87,123,169,36,34,70,38,1
455,22.522351264953613,53,74,93,135,32,27,49,36,1
456,22.544930934906006,53,72,107,141,32,29,55,32,1
457,22.567605018615723,64,84,111,127,38,35,60,33,1
458,22.582422494888306,58,78,117,132,37,33,60,30,1
459,22.604844570159912,59,77,124,136,38,33,63,29,1
460,22.62733244895935,63,77,120,160,39,34,65,28,1
461,22.64242649078369,63,78,113,158,34,34,64,27,1
462,22.665159463882446,53,63,107,155,31,30,61,28,1
463,22.68734335899353,69,84,107,153,34,35,65,34,1
464,22.70240330696106,66,84,107,154,36,36,62,34,1
465,22.724815845489502,61,81,107,144,36,34,60,34,1
466,22.74730348587036,76,102,106,148,42,39,61,42,1
467,22.762303590774536,87,116,116,149,43,46,65,43,1
468,22.785008668899536,76,101,115,153,43,41,54,40,1
469,22.807775735855103,75,99,112,144,41,40,55,41,1
470,22.822370052337646,80,108,121,125,43,43,59,41,1
471,22.844886302947998,66,88,115,165,38,38,54,35,1
472,22.867690801620483,52,73,107,190,37,29,49,31,1
473,22.882884979248047,51,70,100,186,32,28,45,30,1
474,22.904884099960327,48,67,91,184,33,29,51,29,1
475,22.92770218849182,50,64,88,189,32,29,57,32,1
476,22.94205617904663,50,64,114,171,34,30,59,33,1
477,22.96488308906555,50,66,125,157,35,35,71,41,1
478,22.987332582473755,55,72,132,152,35,36,77,42,1
479,23.002902030944824,60,75,136,166,37,39,81,42,1
480,23.02541708946228,66,89,140,162,40,42,79,45,1
481,23.04818296432495,73,99,129,130,41,43,78,45,1
482,23.064578533172607,71,96,122,119,38,40,68,40,1
483,23.085007190704346,67,92,122,203,40,42,84,39,1
484,23.10737156867981,75,102,126,202,46,42,83,41,1
485,23.122517585754395,68,90,128,221,46,40,82,34,1
486,23.14471745491028,60,78,125,256,45,39,86,33,1
487,23.167316198349,63,83,133,266,50,41,87,33,1
488,23.182345867156982,61,85,132,221,51,39,69,33,1
489,23.205049991607666,51,73,129,214,45,37,64,28,1
490,23.22725200653076,44,62,118,194,41,33,58,28,1
491,23.24232244491577,45,63,129,169,42,34,57,28,1
492,23.264902114868164,43,56,116,154,39,33,54,27,1
493,23.287354946136475,47,56,106,136,42,37,57,29,1
494,23.30264687538147,49,59,110,143,42,38,63,30,1
495,23.3248610496521,57,62,117,154,46,41,68,31,1
496,23.347344875335693,57,58,97,148,45,41,67,32,1
497,23.36241316795349,58,65,95,141,44,40,64,32,1
498,23.38582181930542,61,67,105,151,38,37,66,31,1
499,23.407329082489014,61,63,117,217,37,34,64,33,1
500,23.422510147094727,59,71,112,217,31,32,63,35,1
501,23.445040225982666,63,78,115,204,33,33,62,37,1
502,23.46786880493164,61,76,121,208,32,32,62,38,1
503,23.489959001541138,73,106,138,208,33,33,61,41,1
504,23.504368543624878,72,105,140,189,34,35,58,39,1
505,23.52721667289734,71,99,145,217,37,34,56,40,1
506,23.549830198287964,73,100,143,226,38,37,62,38,1
507,23.56495690345764,80,110,154,231,44,40,65,37,1
508,23.586958169937134,63,76,130,233,44,39,64,33,1
509,23.609276294708252,62,75,111,208,45,40,76,32,1
510,23.625378370285034,62,76,101,177,43,39,78,29,1
511,23.647334098815918,55,71,101,162,41,34,71,27,1
512,23.669899225234985,43,50,85,185,35,31,69,26,1
513,23.68495535850525,45,50,82,177,31,30,71,24,1
514,23.70761489868164,43,47,72,155,31,26,55,23,1
515,23.730297088623047,42,45,74,143,31,23,49,24,1
516,23.744879007339478,47,58,114,166,32,24,49,23,1
517,23.767841577529907,50,65,117,138,32,29,55,24,1
518,23.79002857208252,50,70,127,157,35,32,54,28,1
519,23.804893016815186,52,74,130,150,36,33,55,30,1
520,23.82738995552063,52,74,129,164,36,34,56,29,1
521,23.849342823028564,53,73,97,147,34,36,63,36,1
522,23.864952564239502,50,67,91,153,34,35,57,35,1
523,23.887463331222534,50,64,80,125,34,31,54,33,1
524,23.910046100616455,60,75,106,172,40,35,63,33,1
525,23.92440915107727,59,75,112,188,43,35,66,36,1
526,23.947530031204224,54,71,136,202,43,34,67,31,1
527,23.969897985458374,57,74,142,195,42,36,73,30,1
528,23.98496150970459,55,71,150,220,42,38,75,31,1
529,24.007295608520508,58,83,155,205,41,41,74,38,1
530,24.029897928237915,59,84,168,245,44,43,76,40,1
531,24.044904232025146,58,80,150,233,45,42,72,40,1
532,24.06757140159607,62,86,161,239,47,41,74,44,1
533,24.090316772460938,62,88,151,215,48,39,72,43,1
534,24.104959964752197,50,67,127,201,44,32,70,37,1
535,24.127339839935303,55,75,124,170,42,33,76,35,1
536,24.15059232711792,57,77,134,227,42,41,87,37,1
537,24.1649808883667,51,73,114,223,42,40,83,33,1
538,24.187705516815186,53,74,122,226,39,41,83,34,1
539,24.209885358810425,52,73,129,236,36,43,78,34,1
540,24.224900245666504,48,61,108,209,33,43,66,33,1
541,24.247220993041992,58,74,116,199,37,40,70,31,1
542,24.27000594139099,59,74,120,203,42,41,72,30,1
543,24.284931898117065,59,72,113,201,45,41,74,30,1
544,24.307339906692505,65,81,112,191,47,41,79,32,1
545,24.32993984222412,65,86,116,194,48,38,79,30,1
546,24.344934701919556,57,75,101,144,43,33,64,29,1
547,24.367503881454468,58,73,91,127,37,34,61,36,1
548,24.390101671218872,61,80,108,134,39,35,61,38,1
549,24.412680625915527,55,75,110,145,41,35,57,37,1
550,24.427284240722656,56,75,124,162,40,33,55,37,1
551,24.450745344161987,55,78,124,162,42,36,50,38,1
552,24.472556114196777,57,81,126,169,43,37,56,31,1
553,24.4891836643219,55,74,111,177,38,35,57,27,1
554,24.509897232055664,53,69,104,183,38,33,59,26,1
555,24.532424926757812,54,65,87,157,40,36,66,25,1
556,24.547293663024902,53,58,84,162,40,35,70,27,1
557,24.56989026069641,50,55,88,159,39,32,65,30,1
558,24.59244680404663,48,60,104,179,39,35,67,30,1
559,24.607381105422974,55,64,106,212,36,41,83,30,1
560,24.630135536193848,53,65,103,217,37,41,83,31,1
561,24.6520779132843,58,73,104,212,38,43,85,30,1
562,24.667423248291016,63,80,111,218,38,45,86,28,1
563,24.69030237197876,63,80,107,211,39,42,83,29,1
564,24.7131290435791,56,75,105,158,41,39,69,29,1
565,24.727428197860718,63,87,113,155,42,40,68,31,1
566,24.750429391860962,59,84,121,173,40,37,64,29,1
567,24.772402048110962,54,80,114,164,44,35,64,29,1
568,24.787755489349365,66,89,123,153,50,43,72,33,1
569,24.809784173965454,68,93,125,154,48,41,72,33,1
570,24.83243441581726,62,81,118,159,43,39,66,30,1
571,24.847380876541138,61,82,116,154,41,38,65,33,1
572,24.870277643203735,61,78,114,153,39,40,68,31,1
573,24.89257526397705,45,62,104,136,27,30,56,28,1
574,24.90792226791382,47,65,111,157,26,29,53,30,1
575,24.929884672164917,53,72,115,139,34,33,60,31,1
576,24.952709197998047,54,67,110,113,36,33,60,30,1
577,24.96733808517456,57,71,109,127,35,30,55,34,1
578,24.989882469177246,58,72,101,167,42,32,56,32,1
579,25.012913465499878,54,64,84,144,41,33,55,29,1
580,25.02741813659668,55,66,108,173,43,33,57,33,1
581,25.049842596054077,60,72,112,177,41,38,71,34,1
582,25.072397708892822,57,69,116,180,40,40,76,32,1
583,25.087968826293945,57,70,121,153,36,37,74,32,1
584,25.110372066497803,70,90,147,183,44,42,82,34,1
585,25.132497310638428,65,83,125,160,39,39,75,30,1
586,25.147315979003906,63,82,117,154,40,34,65,29,1
587,25.17058277130127,67,88,116,154,42,34,62,29,1
588,25.192663192749023,67,89,115,157,39,35,64,32,1
589,25.206996202468872,52,66,79,143,33,26,51,28,1
590,25.230079412460327,52,67,87,144,31,28,56,29,1
591,25.252368927001953,49,62,90,150,33,27,57,28,1
592,25.26779818534851,39,53,87,140,30,26,56,27,1
593,25.289886236190796,37,45,78,129,30,27,52,24,1
594,25.312530755996704,44,60,96,115,33,31,64,26,1
595,25.327544450759888,57,73,109,144,40,36,71,30,1
596,25.350272178649902,60,78,111,142,41,35,67,30,1
597,25.37245750427246,62,79,122,141,43,37,67,31,1
598,25.395670413970947,69,90,135,151,44,36,69,32,1
599,25.419841289520264,65,84,123,153,41,33,59,30,1
600,25.432405710220337,52,70,108,128,33,28,48,27,1
601,25.455479860305786,47,64,115,130,28,30,50,25,1
602,25.469900131225586,44,61,99,119,25,29,47,23,1
603,25.492517232894897,37,51,92,105,23,30,46,24,1
604,25.515519857406616,39,48,93,98,23,32,48,28,1
605,25.529829025268555,44,53,94,144,27,34,48,28,1
606,25.55285668373108,45,53,84,143,30,34,51,30,1
607,25.576200485229492,49,56,96,155,34,33,55,31,1
608,25.59012484550476,45,52,94,166,36,32,53,29,1
609,25.612515449523926,42,51,105,176,37,31,53,29,1
610,25.6358003616333,42,52,108,138,35,30,54,29,1
611,25.650009632110596,37,51,108,136,34,28,46,28,1
612,25.672340393066406,34,49,111,159,35,27,43,28,1
613,25.695799589157104,42,56,113,154,34,27,49,29,1
614,25.709984064102173,49,65,116,141,34,32,51,32,1
615,25.732913494110107,46,63,119,164,36,32,54,32,1
616,25.75610375404358,50,67,127,183,41,34,56,34,1
617,25.770058393478394,54,73,126,172,38,36,59,34,1
618,25.793627500534058,53,72,126,185,37,36,57,32,1
619,25.815825939178467,49,64,115,195,38,32,55,27,1
620,25.82987093925476,53,65,116,219,44,36,57,26,1
621,25.85242247581482,56,73,116,219,41,35,57,26,1
622,25.875619888305664,54,69,115,223,41,32,56,27,1
623,25.88991069793701,53,69,117,208,44,37,59,31,1
624,25.912636041641235,53,70,117,201,46,37,57,31,1
625,25.93524670600891,51,68,111,156,38,32,58,32,1
626,25.94936752319336,48,56,103,158,35,31,58,30,1
627,25.97274374961853,51,58,99,162,39,32,55,32,1
628,25.99516272544861,51,57,88,164,35,26,57,31,1
629,26.00951337814331,50,57,88,160,31,25,55,31,1
630,26.032469511032104,52,61,82,159,34,28,48,33,1
631,26.05479121208191,54,65,83,167,37,30,52,33,1
632,26.06982660293579,52,65,89,136,33,33,55,32,1
633,26.092462301254272,49,62,97,144,33,33,50,31,1
634,26.115256309509277,51,65,95,145,33,36,52,32,1
635,26.129868745803833,51,62,95,145,30,33,51,30,1
636,26.15253210067749,50,66,89,103,29,32,51,31,1
637,26.17498254776001,53,69,85,120,29,33,47,33,1
638,26.18988800048828,63,72,73,119,32,35,51,35,1
639,26.212804555892944,61,71,84,127,37,34,55,35,1
640,26.234732389450073,58,71,93,133,39,36,55,35,1
641,26.250410556793213,57,63,120,148,38,36,54,35,1
642,26.272441148757935,59,66,117,134,38,35,57,38,1
643,26.294631004333496,56,73,123,141,39,34,54,37,1
644,26.30947709083557,60,74,119,145,35,36,55,37,1
645,26.331819772720337,61,75,114,140,34,36,57,37,1
646,26.35527205467224,60,76,102,150,39,36,59,37,1
647,26.378242254257202,55,68,114,165,39,33,58,32,1
648,26.39251160621643,60,73,128,159,42,38,65,33,1
649,26.4150128364563,62,75,139,160,47,42,68,35,1
650,26.4384925365448,62,73,139,157,46,43,67,37,1
651,26.452571392059326,70,87,143,157,47,46,72,37,1
652,26.474921226501465,74,93,137,157,50,48,73,39,1
653,26.498149871826172,64,82,126,193,44,42,64,36,1
654,26.512609243392944,67,84,110,197,41,40,71,38,1
655,26.534616708755493,72,89,108,203,42,40,73,39,1
656,26.558075666427612,75,87,110,197,43,37,69,42,1
657,26.57239294052124,72,83,104,195,41,35,67,40,1
658,26.59528088569641,76,83,96,154,45,39,70,39,1
659,26.61812996864319,69,76,95,136,44,35,57,36,1
660,26.632733583450317,65,73,105,135,46,33,59,33,1
661,26.654944896697998,53,60,85,142,41,34,59,28,1
662,26.67837166786194,59,73,109,148,40,37,69,32,1
663,26.692872762680054,56,79,112,148,41,36,66,35,1
664,26.714932203292847,57,82,121,152,42,39,68,36,1
665,26.738068342208862,59,83,114,157,38,40,64,35,1
666,26.752289056777954,67,97,118,142,40,41,64,40,1
667,26.775039196014404,61,92,109,138,41,42,66,38,1
668,26.798298597335815,64,89,110,155,39,42,77,36,1
669,26.81257724761963,63,86,104,161,39,37,76,37,1
670,26.834953784942627,64,87,128,159,43,37,83,37,1
671,26.858131170272827,54,68,120,153,44,35,86,33,1
672,26.87239933013916,52,63,114,143,44,36,79,32,1
673,26.895179986953735,51,61,131,183,45,42,88,32,1
674,26.91808557510376,51,61,128,182,43,43,90,31,1
675,26.93233847618103,54,64,107,177,44,46,88,33,1
676,26.95525336265564,54,64,106,175,41,44,79,32,1
677,26.977665662765503,54,66,126,196,39,43,77,31,1
678,26.991861581802368,60,78,116,172,44,40,63,33,1
679,27.015177726745605,60,82,119,164,43,40,59,31,1
680,27.038126468658447,53,75,119,196,39,37,53,31,1
681,27.052851676940918,50,73,122,212,40,36,58,31,1
682,27.074867486953735,53,77,105,192,39,33,57,31,1
683,27.09827208518982,41,65,101,175,30,28,46,28,1
684,27.112467765808105,44,65,103,219,32,28,48,33,1
685,27.1351797580719,44,67,104,192,28,24,46,31,1
686,27.158446073532104,50,70,103,179,35,29,48,32,1
687,27.172449827194214,52,65,90,193,36,33,51,35,1
688,27.195048093795776,50,60,83,188,34,35,49,34,1
689,27.21888017654419,57,63,83,133,34,39,51,34,1
690,27.232359170913696,63,71,81,136,37,43,60,35,1
691,27.256006717681885,62,73,84,142,32,41,57,34,1
692,27.278475999832153,62,76,87,144,35,40,59,34,1
693,27.301084518432617,65,80,103,152,38,38,63,35,1
694,27.314441204071045,56,73,104,172,38,32,62,31,1
695,27.338248252868652,49,63,112,226,36,27,57,31,1
696,27.360562801361084,54,63,114,225,39,29,58,32,1
697,27.37480640411377,48,58,123,220,44,29,55,30,1
698,27.397603273391724,49,56,111,218,43,29,53,32,1
699,27.421350479125977,52,62,110,203,41,31,55,34,1
700,27.43518376350403,56,68,98,144,40,30,51,35,1
701,27.46608304977417,49,64,89,176,38,29,50,35,1
702,27.480530500411987,49,60,80,164,28,28,48,35,1
703,27.494961500167847,47,62,75,154,27,28,51,33,1
704,27.518110036849976,49,62,69,186,27,26,49,32,1
705,27.540624856948853,45,56,73,184,34,29,50,30,1
706,27.554922819137573,44,56,77,143,31,27,46,32,1
707,27.578117847442627,43,58,74,149,32,25,44,31,1
708,27.6001935005188,43,54,97,153,35,26,49,31,1
709,27.61445951461792,37,52,107,144,37,27,46,32,1
710,27.638309001922607,37,50,108,136,32,25,48,30,1
711,27.66112518310547,37,53,110,146,36,25,49,27,1
712,27.67492151260376,39,53,112,159,38,25,50,26,1
713,27.698189735412598,43,60,98,177,43,28,46,29,1
714,27.720754861831665,42,61,95,154,41,30,52,29,1
715,27.73490047454834,43,63,112,160,40,30,53,31,1
716,27.757647275924683,47,62,123,212,39,34,56,32,1
717,27.780123949050903,46,61,122,205,37,34,58,33,1
718,27.795445203781128,38,51,136,191,28,29,55,30,1
719,27.819567441940308,47,59,141,214,31,30,55,31,1
720,27.84085202217102,51,64,134,237,32,31,61,32,1
721,27.855008602142334,46,61,122,184,31,28,62,32,1
722,27.87816071510315,46,60,132,190,30,29,60,30,1
723,27.901414155960083,45,59,120,200,30,29,59,30,1
724,27.91480255126953,39,49,117,202,28,29,57,28,1
725,27.937973737716675,33,48,129,204,28,25,48,26,1
726,27.960540771484375,41,58,139,228,29,31,62,27,1
727,27.974823236465454,47,63,132,218,30,35,71,32,1
728,27.99804663658142,53,66,127,209,36,39,73,32,1
729,28.020658493041992,53,68,124,190,38,38,70,32,1
730,28.034911155700684,54,63,115,181,40,38,71,30,1
731,28.0581476688385,53,61,104,152,41,37,63,31,1
732,28.08074951171875,50,58,94,150,41,34,54,28,1
733,28.094882011413574,46,59,90,139,37,31,54,29,1
734,28.118203163146973,46,58,86,178,37,32,54,29,1
735,28.140812158584595,47,58,75,149,37,32,54,30,1
736,28.154893159866333,43,54,92,200,36,30,50,27,1
737,28.17802333831787,43,55,112,236,36,30,59,27,1
738,28.200576782226562,43,51,117,246,35,29,56,26,1
739,28.21491837501526,45,50,125,218,32,32,64,29,1
740,28.238120794296265,46,59,130,219,32,33,62,33,1
741,28.26066017150879,56,75,136,195,37,35,61,38,1
742,28.283172607421875,54,75,128,159,38,35,56,38,1
743,28.298627376556396,54,75,125,144,39,38,61,37,1
744,28.320894479751587,57,88,138,163,43,42,63,37,1
745,28.343101739883423,52,81,131,164,43,40,63,33,1
746,28.358137130737305,41,64,112,138,36,37,60,27,1
747,28.380943536758423,41,63,108,126,35,38,62,26,1
748,28.403146266937256,50,72,125,207,41,36,72,28,1
749,28.41742205619812,47,55,94,191,38,29,66,25,1
750,28.440021276474,49,56,100,206,35,28,68,26,1
751,28.4649338722229,49,56,101,232,37,29,69,29,1
752,28.47818398475647,48,56,97,236,40,25,62,30,1
753,28.500792980194092,41,43,78,176,34,22,50,28,1
754,28.523377656936646,40,44,82,169,34,21,45,29,1
755,28.53756284713745,46,48,75,157,39,24,44,31,1
756,28.560641050338745,52,56,72,122,41,25,47,30,1
757,28.584166288375854,55,62,93,124,40,29,55,30,1
758,28.59733295440674,60,72,100,132,42,33,57,31,1
759,28.62078094482422,59,74,107,178,43,33,59,34,1
760,28.643087148666382,58,73,118,177,41,34,60,35,1
761,28.657328367233276,65,81,135,188,40,34,59,36,1
762,28.68088698387146,65,79,123,207,38,34,54,36,1
763,28.703222274780273,58,71,115,208,38,31,52,37,1
764,28.71746516227722,60,72,113,204,39,32,54,33,1
765,28.741363286972046,59,75,116,206,40,31,57,30,1
766,28.763039112091064,55,66,104,208,39,35,64,31,1
767,28.77742576599121,50,59,104,191,37,32,61,32,1
768,28.800729036331177,49,59,114,191,34,33,59,29,1
769,28.823060274124146,47,53,112,189,30,32,62,30,1
770,28.837704181671143,41,48,118,205,29,31,56,29,1
771,28.860568523406982,33,41,116,189,30,30,53,25,1
772,28.883678436279297,36,45,124,192,32,33,60,24,1
773,28.897336959838867,38,46,116,181,32,32,58,26,1
774,28.92153525352478,40,47,108,151,35,34,54,28,1
775,28.943069458007812,47,50,85,128,35,35,57,31,1
776,28.95750379562378,47,49,81,151,34,32,52,32,1
777,28.98055863380432,50,48,66,153,33,30,45,31,1
778,29.003305673599243,50,51,71,160,37,35,62,33,1
779,29.01731848716736,51,52,81,180,35,33,63,31,1
780,29.040650367736816,49,53,87,172,34,33,64,28,1
781,29.063047170639038,47,56,100,176,30,31,61,28,1
782,29.07797360420227,43,54,113,171,33,31,63,28,1
783,29.10062026977539,44,57,118,177,28,25,45,24,1
784,29.123610734939575,51,67,120,149,30,27,46,29,1
785,29.13737177848816,48,68,123,180,35,26,45,32,1
786,29.16086769104004,50,69,109,172,35,28,47,33,1
787,29.183103561401367,51,70,93,165,34,30,48,33,1
788,29.20561957359314,49,67,109,182,37,30,51,32,1
789,29.22062039375305,43,58,104,183,38,32,52,29,1
790,29.243093013763428,41,53,93,153,33,31,49,29,1
791,29.265540599822998,39,50,101,132,36,33,49,27,1
792,29.28064513206482,41,53,120,144,41,32,53,27,1
793,29.304002046585083,42,53,101,118,39,35,49,28,1
794,29.32572293281555,39,48,99,131,35,31,43,27,1
795,29.34077501296997,54,69,137,144,43,39,54,30,1
796,29.3635036945343,53,67,147,181,46,37,52,31,1
797,29.38762855529785,52,66,140,197,40,38,49,32,1
798,29.40075182914734,53,68,143,191,40,37,53,32,1
799,29.423218250274658,55,71,148,190,43,38,55,33,1
800,29.445562601089478,43,55,133,209,41,32,51,28,1
801,29.459913730621338,45,54,122,188,36,31,53,27,1
802,29.48311185836792,46,56,127,159,37,27,51,28,1
803,29.50572943687439,42,53,129,194,38,24,49,27,1
804,29.520299673080444,38,51,122,189,37,26,57,25,1
805,29.543132066726685,39,49,110,184,33,24,57,26,1
806,29.565267324447632,48,60,107,181,34,34,63,31,1
807,29.579633712768555,52,65,103,191,38,40,65,34,1
808,29.60323190689087,52,66,100,176,42,41,67,35,1
809,29.625495195388794,53,66,98,187,41,39,60,39,1
810,29.63984179496765,55,70,139,221,42,40,60,42,1
811,29.663044929504395,56,66,141,221,41,41,68,38,1
812,29.685759782791138,54,60,148,244,38,37,70,37,1
813,29.69978904724121,56,64,165,238,32,37,69,37,1
814,29.72312021255493,57,64,169,235,36,37,75,34,1
815,29.745558500289917,58,64,153,198,35,38,80,28,1
816,29.760229110717773,52,67,155,197,34,31,66,30,1
817,29.78352117538452,47,65,141,186,34,30,61,28,1
818,29.80564546585083,45,60,120,182,39,30,59,27,1
819,29.820107221603394,42,59,115,170,36,29,51,27,1
820,29.843435049057007,43,65,132,185,39,28,38,30,1
821,29.86556315422058,43,57,128,194,42,30,51,31,1
822,29.879945755004883,46,61,124,165,42,30,52,29,1
823,29.903042793273926,50,65,127,156,39,30,53,32,1
824,29.92592430114746,52,67,133,196,37,33,62,35,1
825,29.94045400619507,68,83,108,173,36,39,79,40,1
826,29.963342428207397,67,84,104,160,33,37,71,38,1
827,29.985532522201538,66,83,109,163,33,39,74,42,1
828,30.000259160995483,63,81,104,172,32,38,74,40,1
829,30.023103952407837,63,80,101,125,32,36,68,37,1
830,30.045747995376587,43,56,97,146,28,28,58,32,1
831,30.05985116958618,51,62,109,161,29,32,73,37,1
832,30.08318066596985,59,71,112,182,33,35,76,36,1
833,30.10565495491028,59,74,123,172,33,36,77,37,1
834,30.128647565841675,58,73,121,170,36,37,77,39,1
835,30.143179416656494,56,75,130,164,36,39,75,38,1
836,30.1659197807312,47,68,139,222,40,36,64,33,1
837,30.187770128250122,40,58,139,218,36,35,69,32,1
838,30.20275354385376,38,54,134,234,35,35,70,31,1
839,30.225959300994873,43,55,133,238,38,34,70,28,1
840,30.248145580291748,42,50,113,224,39,32,63,28,1
841,30.263131380081177,44,52,89,149,34,32,59,28,1
842,30.285595655441284,41,53,93,136,37,27,44,24,1
843,30.308359146118164,42,54,88,97,36,28,52,23,1
844,30.323378562927246,38,58,91,91,30,30,50,23,1
845,30.345802783966064,41,59,89,121,33,33,50,23,1
846,30.368093490600586,47,64,114,136,37,33,53,24,1
847,30.38301968574524,48,66,136,130,36,36,59,25,1
848,30.40596103668213,48,69,146,146,37,35,51,27,1
849,30.42814588546753,46,62,144,154,38,31,51,26,1
850,30.44241762161255,52,71,159,148,38,31,66,25,1
851,30.465554237365723,57,73,147,147,40,33,65,25,1
852,30.48869037628174,59,73,129,153,40,32,60,27,1
853,30.504154443740845,60,71,121,152,42,32,64,26,1
854,30.52653932571411,60,72,119,174,41,34,63,29,1
855,30.547374963760376,59,70,111,170,39,33,50,37,1
856,30.56437110900879,50,62,124,168,36,31,56,36,1
857,30.586649656295776,44,54,114,170,34,29,58,34,1
858,30.607452154159546,42,52,113,170,34,29,55,39,1
859,30.62423324584961,42,51,119,158,33,29,53,37,1
860,30.64730143547058,35,43,112,157,32,29,56,32,1
861,30.667312622070312,32,45,107,155,28,28,52,31,1
862,30.68468713760376,51,63,106,145,35,37,62,39,1
863,30.70721673965454,57,69,102,141,36,38,62,38,1
864,30.727445602416992,63,77,102,125,38,40,68,41,1
865,30.74396300315857,64,76,103,107,42,40,67,43,1
866,30.766844272613525,64,74,84,96,44,40,67,44,1
867,30.78734803199768,51,62,103,140,39,33,59,38,1
868,30.810038328170776,47,58,97,143,39,31,56,39,1
869,30.826761722564697,52,61,97,142,41,31,51,40,1
870,30.846861600875854,53,62,96,145,40,33,50,37,1
871,30.865426540374756,52,62,96,169,39,33,47,36,1
872,30.886882066726685,56,62,82,142,41,35,44,35,1
873,30.907368421554565,59,65,83,144,40,36,49,33,1
874,30.929872274398804,54,58,84,149,36,35,50,30,1
875,30.946503400802612,54,57,87,152,36,31,48,28,1
876,30.967312812805176,55,56,85,146,37,33,52,30,1
877,30.99075222015381,52,56,84,149,34,29,49,29,1
878,31.007616758346558,47,51,86,136,32,27,49,26,1
879,31.027364492416382,49,53,83,127,33,27,46,28,1
880,31.04985809326172,52,57,74,121,33,32,53,28,1
881,31.06614065170288,54,59,95,142,33,31,52,28,1
882,31.087363481521606,53,59,96,136,31,32,52,27,1
883,31.109877586364746,53,57,101,138,31,32,47,26,1
884,31.12671160697937,46,54,114,172,30,34,49,29,1
885,31.147302389144897,42,53,121,205,30,30,44,30,1
886,31.169912815093994,40,52,115,195,30,32,40,28,1
887,31.186634063720703,44,53,113,194,33,31,39,30,1
888,31.207768440246582,50,58,116,233,35,34,43,32,1
889,31.229923725128174,55,62,103,217,36,35,49,29,1
890,31.246800899505615,53,59,99,183,34,34,46,27,1
891,31.267314672470093,54,59,88,183,34,34,47,29,1
892,31.28961730003357,52,59,97,219,32,37,61,32,1
893,31.305752992630005,47,55,88,179,28,32,57,32,1
894,31.32732105255127,42,48,86,174,33,28,54,32,1
895,31.349913358688354,46,50,91,189,34,32,59,36,1
896,31.36699366569519,55,60,107,194,37,33,63,36,1
897,31.387423992156982,58,63,99,157,40,32,57,34,1
898,31.409820556640625,56,63,100,154,43,33,57,32,1
899,31.42691159248352,66,79,114,156,42,36,62,36,1
900,31.4472553730011,69,88,121,176,47,38,68,36,1
901,31.469824075698853,61,81,117,156,47,36,66,36,1
902,31.4868266582489,62,80,116,151,47,37,66,38,1
903,31.507373094558716,73,90,116,180,47,40,76,45,1
904,31.52969527244568,66,81,106,201,46,40,72,45,1
905,31.54751944541931,65,80,108,184,46,36,65,43,1
906,31.567354917526245,66,80,100,208,47,37,63,42,1
907,31.589745044708252,61,76,101,205,44,33,56,40,1
908,31.607394456863403,52,68,106,193,52,32,48,36,1
909,31.62945556640625,48,62,98,173,52,29,45,34,1
910,31.649876356124878,40,48,79,163,46,28,42,33,1
911,31.667279481887817,48,62,86,130,46,28,53,34,1
912,31.687779426574707,59,78,101,141,53,35,68,35,1
913,31.710054397583008,61,80,103,140,44,37,70,33,1
914,31.72663974761963,64,83,110,141,41,40,75,32,1
915,31.74752163887024,64,82,110,139,42,41,73,34,1
916,31.770064115524292,59,71,99,133,38,42,66,32,1
917,31.787662029266357,57,64,105,148,33,40,58,33,1
918,31.807469129562378,52,57,101,142,30,37,56,30,1
919,31.829987287521362,50,57,94,134,32,35,53,29,1
920,31.84700322151184,51,59,93,132,31,35,54,28,1
921,31.86742663383484,47,57,99,140,34,34,60,27,1
922,31.88998508453369,49,67,134,175,35,35,59,28,1
923,31.90867042541504,64,81,127,167,37,37,68,34,1
924,31.927290678024292,63,79,127,168,39,38,73,34,1
925,31.949817180633545,63,78,126,166,38,38,73,35,1
926,31.96669864654541,69,90,147,189,42,41,72,43,1
927,31.987619400024414,61,77,100,201,42,38,72,40,1
928,32.010130643844604,45,60,100,203,40,33,57,35,1
929,32.03291702270508,66,87,109,199,46,40,62,40,1
930,32.046937465667725,75,97,127,205,50,45,73,43,1
931,32.070204734802246,71,87,100,194,45,43,75,37,1
932,32.09240007400513,76,92,105,141,45,43,76,41,1
933,32.108821392059326,80,99,114,157,48,49,87,42,1
934,32.12982702255249,66,78,104,170,39,43,81,38,1
935,32.15285873413086,64,77,100,174,40,42,72,35,1
936,32.16734051704407,61,75,122,161,40,38,67,36,1
937,32.191696882247925,57,72,118,158,36,39,70,32,1
938,32.21235728263855,51,64,112,152,31,33,61,30,1
939,32.227319955825806,48,61,126,145,34,33,63,31,1
940,32.24987459182739,40,49,117,161,32,31,62,33,1
941,32.27253699302673,42,48,96,178,34,34,62,31,1
942,32.287517070770264,45,49,124,170,36,36,68,31,1
943,32.30989336967468,43,48,128,161,36,33,65,32,1
944,32.33240485191345,43,50,119,162,36,32,61,30,1
945,32.347776889801025,42,50,121,137,34,29,59,28,1
946,32.37200117111206,46,60,137,147,34,30,64,29,1
947,32.39250302314758,49,62,111,151,36,29,50,31,1
948,32.407439947128296,59,77,133,156,40,33,54,34,1
949,32.4299521446228,63,84,146,169,41,36,59,34,1
950,32.452446699142456,66,89,144,174,40,36,60,34,1
951,32.46743988990784,63,85,133,163,38,37,56,36,1
952,32.49033832550049,57,81,131,165,34,36,56,32,1
953,32.51289367675781,48,67,107,178,32,35,54,29,1
954,32.52704977989197,42,59,93,156,28,31,48,31,1
955,32.54952096939087,55,68,102,151,31,38,68,40,1
956,32.573145151138306,58,67,99,135,33,37,67,39,1
957,32.58774209022522,59,68,102,149,37,36,65,39,1
958,32.609994411468506,59,70,109,142,39,35,69,40,1
959,32.6318781375885,60,74,117,148,44,36,69,39,1
960,32.64747977256775,45,59,120,146,45,29,48,29,1
961,32.66991305351257,37,57,121,153,44,26,45,28,1
962,32.692466020584106,61,85,140,160,53,38,57,39,1
963,32.70751738548279,71,93,136,150,51,43,52,42,1
964,32.729753255844116,70,88,127,157,48,43,53,42,1
965,32.75249433517456,78,100,124,163,47,43,57,44,1
966,32.76752161979675,84,104,131,191,51,47,59,46,1
967,32.790106773376465,71,85,120,185,40,37,59,38,1
968,32.812331676483154,61,76,114,181,40,33,57,34,1
969,32.827356815338135,64,81,126,174,41,32,57,34,1
970,32.84988617897034,57,75,148,249,43,37,66,36,1
971,32.872841119766235,53,71,137,230,44,35,67,35,1
972,32.887322187423706,56,77,150,221,44,36,62,35,1
973,32.909515380859375,56,74,148,225,44,38,68,34,1
974,32.93182325363159,55,74,136,226,42,41,72,33,1
975,32.94732069969177,51,63,111,135,37,36,60,28,1
976,32.9702353477478,49,67,120,119,30,35,58,27,1
977,32.99250245094299,45,61,108,122,30,34,49,30,1
978,33.01528525352478,51,69,118,133,33,33,53,33,1
979,33.03026819229126,54,71,136,187,36,37,66,36,1
980,33.05239915847778,68,80,134,189,36,41,81,39,1
981,33.07480263710022,74,81,137,190,41,44,86,40,1
982,33.089858293533325,77,81,134,197,44,47,95,37,1
983,33.112544775009155,74,77,139,202,48,45,90,36,1
984,33.13444662094116,72,76,129,153,47,42,76,34,1
985,33.149513959884644,63,72,148,173,48,46,75,32,1
986,33.17256164550781,56,68,142,176,43,42,73,28,1
987,33.19585061073303,46,62,131,160,39,37,62,25,1
988,33.20993494987488,49,61,129,145,34,39,62,29,1
989,33.23244094848633,48,58,116,140,32,38,62,30,1
990,33.25480651855469,46,53,96,123,30,27,44,29,1
991,33.269731760025024,45,54,88,118,31,28,40,29,1
992,33.292365312576294,51,61,92,129,33,31,45,34,1
993,33.31571555137634,46,58,89,147,30,26,46,32,1
994,33.32932233810425,45,54,93,156,33,26,47,32,1
995,33.35238194465637,45,52,85,140,34,30,57,30,1
996,33.374940395355225,43,51,111,145,35,30,56,31,1
997,33.3905885219574,36,42,110,138,32,27,53,27,1
998,33.41252303123474,33,41,105,130,34,28,50,26,1
999,33.43520164489746,33,46,108,128,30,27,52,24,1
1000,33.44989514350891,36,48,110,144,32,26,46,25,1
1001,33.47235441207886,40,48,88,179,29,25,49,26,1
1002,33.49508810043335,40,49,88,182,33,26,49,25,1
1003,33.51023745536804,47,59,83,175,34,28,49,24,1
1004,33.532312870025635,49,60,81,185,36,29,54,27,1
1005,36.39751482009888,51,41,45,76,33,24,45,35,2
1006,36.41977858543396,50,37,41,76,33,21,40,31,2
1007,36.44328570365906,58,51,55,106,36,24,45,32,2
1008,36.45730185508728,57,52,57,93,32,27,49,34,2
1009,36.47991323471069,49,53,58,95,32,26,50,30,2
1010,36.50363349914551,57,67,73,95,32,28,51,33,2
1011,36.51740121841431,62,73,78,110,37,30,55,38,2
1012,36.53987765312195,54,65,73,89,34,28,49,37,2
1013,36.5629780292511,62,63,69,92,31,29,44,34,2
1014,36.57915997505188,66,65,71,103,33,30,41,38,2
1015,36.599815368652344,61,58,62,114,30,30,42,35,2
1016,36.6225643157959,62,52,56,112,28,28,41,30,2
1017,36.637314319610596,65,50,51,109,28,27,40,32,2
1018,36.6599063873291,57,50,53,108,30,23,39,32,2
1019,36.68272399902344,52,50,49,95,28,25,42,28,2
1020,36.69762635231018,62,62,66,109,35,27,47,34,2
1021,36.71989297866821,69,62,65,116,37,33,45,33,2
1022,36.74326705932617,65,63,67,115,37,32,49,33,2
1023,36.75723171234131,67,65,68,114,37,35,49,32,2
1024,36.779717206954956,68,62,68,115,37,35,48,31,2
1025,36.80296969413757,66,45,42,102,33,32,37,28,2
1026,36.82549715042114,53,38,40,88,30,28,34,27,2
1027,36.8401415348053,59,45,40,88,31,29,32,28,2
1028,36.863263845443726,61,51,43,90,32,26,33,29,2
1029,36.88588881492615,75,52,48,95,34,26,34,33,2
1030,36.89989161491394,67,50,55,97,32,27,37,33,2
1031,36.92291283607483,67,54,57,93,34,28,37,37,2
1032,36.94552993774414,70,50,55,87,34,28,37,38,2
1033,36.95993232727051,68,38,50,85,33,29,35,36,2
1034,36.982975006103516,48,40,50,97,33,29,39,33,2
1035,37.00545597076416,48,40,48,83,32,27,37,31,2
1036,37.01933169364929,48,39,48,79,29,25,40,28,2
1037,37.043291091918945,41,38,48,83,28,24,37,24,2
1038,37.065624475479126,40,39,47,82,25,23,37,25,2
1039,37.07982659339905,43,38,44,85,22,23,33,25,2
1040,37.103434324264526,43,37,38,88,25,23,32,23,2
1041,37.12592363357544,46,37,38,89,25,24,28,22,2
1042,37.139827251434326,50,45,44,93,25,25,34,23,2
1043,37.16308307647705,53,50,54,99,29,27,35,21,2
1044,37.18550252914429,57,51,52,89,29,25,35,23,2
1045,37.19979643821716,57,53,52,88,29,26,37,26,2
1046,37.22292494773865,69,55,51,100,30,25,37,27,2
1047,37.245556116104126,72,58,61,103,31,29,36,29,2
1048,37.26073598861694,73,57,57,101,29,28,37,29,2
1049,37.28341722488403,69,56,60,107,30,31,38,28,2
1050,37.30563569068909,74,55,60,106,30,30,37,26,2
1051,37.31998634338379,62,54,68,125,36,31,39,25,2
1052,37.34438943862915,51,45,58,118,33,26,37,22,2
1053,37.3658332824707,47,39,58,135,32,26,34,22,2
1054,37.38013982772827,45,38,55,124,33,25,34,24,2
1055,37.403133153915405,60,40,55,122,35,27,35,25,2
1056,37.42576599121094,57,37,44,92,32,27,39,26,2
1057,37.4402973651886,58,37,45,98,35,29,41,30,2
1058,37.4636754989624,65,37,47,71,35,27,42,30,2
1059,37.48588562011719,77,43,50,71,35,27,43,31,2
1060,37.500550746917725,58,42,53,76,32,24,43,33,2
1061,37.523513317108154,63,40,53,84,32,25,41,33,2
1062,37.545531272888184,71,46,54,95,31,23,45,32,2
1063,37.559850454330444,76,46,51,96,32,23,44,35,2
1064,37.583266258239746,64,41,51,97,32,22,45,34,2
1065,37.60640859603882,65,40,50,97,32,22,43,33,2
1066,37.62016487121582,64,43,49,101,26,21,42,32,2
1067,37.64317870140076,63,37,44,86,26,21,35,31,2
1068,37.6656756401062,49,39,43,83,26,21,35,28,2
1069,37.67977786064148,50,45,46,92,26,22,35,28,2
1070,37.70317983627319,51,47,44,111,27,22,39,27,2
1071,37.72588133811951,59,44,43,105,27,22,36,29,2
1072,37.74822211265564,60,43,45,105,26,23,42,27,2
1073,37.76348400115967,63,47,46,106,27,22,43,28,2
1074,37.78513169288635,62,43,40,129,30,21,43,28,2
1075,37.80851674079895,66,42,39,112,27,20,42,28,2
1076,37.82302522659302,65,45,41,105,28,21,42,28,2
1077,37.84684753417969,56,45,43,110,29,23,38,29,2
1078,37.8680522441864,54,40,48,125,31,26,41,32,2
1079,37.88305997848511,69,50,60,94,29,28,43,32,2
1080,37.90608024597168,68,53,64,91,31,27,41,31,2
1081,37.92838644981384,62,52,68,94,32,30,42,30,2
1082,37.9430832862854,62,51,67,97,29,29,41,32,2
1083,37.96557068824768,62,52,64,104,29,28,42,29,2
1084,37.98813343048096,58,51,60,106,27,31,38,30,2
1085,38.003154277801514,53,49,59,112,26,31,37,30,2
1086,38.02552604675293,51,50,56,108,27,29,36,29,2
1087,38.04801893234253,57,53,56,100,27,29,35,26,2
1088,38.06297588348389,56,53,53,100,28,29,31,26,2
1089,38.08578372001648,46,43,50,95,26,25,29,24,2
1090,38.107656717300415,49,42,47,88,29,27,30,26,2
1091,38.12293791770935,48,40,46,89,27,26,29,26,2
1092,38.14609694480896,43,43,48,93,26,25,30,29,2
1093,38.16803240776062,44,43,45,77,28,24,31,30,2
1094,38.18234992027283,42,43,47,79,29,24,33,29,2
1095,38.20564603805542,39,40,46,81,31,25,34,28,2
1096,38.228639125823975,46,47,53,80,32,24,36,28,2
1097,38.24236297607422,45,51,57,88,35,25,37,26,2
1098,38.265685081481934,46,48,59,77,33,26,34,25,2
1099,38.2880744934082,45,48,59,82,31,24,34,25,2
1100,38.3026807308197,53,51,60,79,33,27,33,26,2
1101,38.32574486732483,47,51,57,80,37,28,37,25,2
1102,38.34817337989807,44,46,54,94,35,28,38,27,2
1103,38.36251473426819,44,49,55,96,35,29,38,27,2
1104,38.38786196708679,62,56,54,89,38,33,40,35,2
1105,38.40816569328308,56,54,54,93,34,30,40,33,2
1106,38.422234773635864,63,56,57,91,30,32,43,37,2
1107,38.44574737548828,67,58,62,77,32,33,43,36,2
1108,38.46833300590515,70,59,62,71,35,32,46,37,2
1109,38.482364892959595,54,53,64,79,31,29,44,31,2
1110,38.506189584732056,65,65,72,81,34,33,53,33,2
1111,38.5281445980072,67,60,69,98,36,30,48,28,2
1112,38.54247856140137,67,59,66,101,34,30,47,26,2
1113,38.5656156539917,66,56,71,110,30,29,46,26,2
1114,38.58854842185974,69,59,71,107,34,28,46,25,2
1115,38.602352142333984,72,62,71,108,33,24,35,24,2
1116,38.62587332725525,62,58,67,99,29,25,36,26,2
1117,38.64804768562317,60,56,65,93,29,24,34,28,2
1118,38.66247582435608,65,63,67,90,31,24,31,28,2
1119,38.685935497283936,71,63,68,99,30,28,34,32,2
1120,38.70901393890381,57,47,60,96,31,26,31,31,2
1121,38.730438470840454,58,48,63,106,33,25,32,29,2
1122,38.745445013046265,61,50,64,99,33,23,35,30,2
1123,38.768144845962524,64,51,63,97,34,24,34,30,2
1124,38.792057514190674,54,48,56,86,32,19,32,27,2
1125,38.80566668510437,56,49,53,85,29,21,33,29,2
1126,38.828075647354126,60,48,50,87,27,21,33,30,2
1127,38.85064172744751,65,50,53,96,28,23,33,30,2
1128,38.86559748649597,67,45,51,100,27,21,34,32,2
1129,38.888192892074585,69,44,52,116,27,23,37,29,2
1130,38.910571336746216,67,47,62,135,28,23,35,26,2
1131,38.92554688453674,63,49,63,126,28,24,35,28,2
1132,38.948466300964355,55,47,59,117,27,25,35,27,2
1133,38.97074341773987,38,40,51,113,24,27,35,25,2
1134,38.98566031455994,34,46,53,117,25,27,31,25,2
1135,39.00803852081299,37,48,45,95,30,28,33,27,2
1136,39.030749797821045,42,46,44,87,29,28,31,27,2
1137,39.04516863822937,44,45,42,87,29,28,30,26,2
1138,39.06810235977173,52,60,66,90,34,28,36,26,2
1139,39.09126377105713,54,59,70,69,33,29,36,26,2
1140,39.10484075546265,55,62,73,74,29,27,35,24,2
1141,39.12831497192383,54,62,74,75,29,28,37,24,2
1142,39.151082277297974,61,62,76,77,28,27,37,24,2
1143,39.16513228416443,59,48,59,72,21,24,33,24,2
1144,39.18830442428589,56,44,50,96,24,24,34,26,2
1145,39.21066403388977,54,37,46,98,28,23,35,29,2
1146,39.22516179084778,63,46,53,101,29,23,35,29,2
1147,39.24823331832886,53,44,55,103,31,21,38,29,2
1148,39.27083611488342,47,44,51,107,32,22,35,27,2
1149,39.285008668899536,46,44,53,99,30,23,36,28,2
1150,39.308310985565186,63,53,61,100,28,27,39,30,2
1151,39.33080744743347,55,45,55,105,30,29,43,28,2
1152,39.345022201538086,55,44,52,104,31,29,40,30,2
1153,39.36817789077759,71,61,64,106,38,33,50,37,2
1154,39.39076209068298,74,62,65,102,39,32,48,36,2
1155,39.405356884002686,64,60,64,99,37,28,47,36,2
1156,39.42800831794739,67,60,62,90,35,26,43,39,2
1157,39.45060133934021,68,61,64,90,35,27,43,37,2
1158,39.46562957763672,55,55,68,87,31,22,36,32,2
1159,39.487993001937866,54,54,67,74,32,21,37,30,2
1160,39.5105414390564,71,50,62,73,33,23,37,27,2
1161,39.524938106536865,72,56,70,77,34,22,39,24,2
1162,39.54818654060364,71,59,72,76,33,22,38,25,2
1163,39.57075476646423,78,54,63,87,33,24,37,25,2
1164,39.584858655929565,77,56,62,84,32,25,37,27,2
1165,39.60833263397217,58,55,62,78,31,24,34,25,2
1166,39.63071012496948,50,48,57,87,29,25,35,25,2
1167,39.65343260765076,60,48,55,107,28,25,36,25,2
1168,39.66796612739563,52,45,49,105,24,24,36,23,2
1169,39.69057774543762,51,44,49,104,24,23,37,23,2
1170,39.71304702758789,56,43,50,106,23,24,39,27,2
1171,39.728172063827515,69,56,65,122,25,23,40,28,2
1172,39.75046896934509,66,55,64,108,24,24,40,28,2
1173,39.77325463294983,65,54,65,97,21,23,38,27,2
1174,39.78752517700195,67,56,69,106,26,25,38,25,2
1175,39.8108868598938,64,55,66,108,25,25,39,21,2
1176,39.83330512046814,49,42,49,78,25,24,34,19,2
1177,39.848151445388794,47,40,47,71,28,24,36,21,2
1178,39.87094759941101,45,39,51,75,29,26,35,22,2
1179,39.89315104484558,64,43,58,86,28,26,34,26,2
1180,39.90817713737488,64,44,59,98,30,27,32,31,2
1181,39.93063235282898,65,44,58,98,29,28,35,31,2
1182,39.95307278633118,73,43,58,98,26,27,32,33,2
1183,39.967533349990845,73,40,54,95,28,25,36,32,2
1184,39.99095296859741,54,35,44,87,28,25,36,30,2
1185,40.01255536079407,51,37,47,71,27,23,36,26,2
1186,40.02764368057251,51,37,50,73,28,24,35,25,2
1187,40.050496339797974,37,37,51,73,28,25,35,24,2
1188,40.073105573654175,38,41,50,83,26,25,32,24,2
1189,40.08784079551697,39,41,48,104,27,25,32,25,2
1190,40.11085391044617,47,38,54,105,27,25,31,25,2
1191,40.133121967315674,47,35,52,108,27,25,32,26,2
1192,40.147376537323,49,40,56,112,27,28,35,30,2
1193,40.170631885528564,51,41,58,118,28,30,39,31,2
1194,40.19355320930481,56,40,57,88,25,30,37,30,2
1195,40.20770335197449,52,39,47,87,27,29,37,30,2
1196,40.231104373931885,55,42,46,84,27,31,39,31,2
1197,40.25321960449219,56,49,51,97,30,29,47,26,2
1198,40.26773524284363,60,50,53,84,32,27,45,27,2
1199,40.29114294052124,55,52,54,88,32,26,45,26,2
1200,40.31300497055054,58,54,63,102,33,26,46,25,2
1201,40.32769846916199,54,52,66,103,33,24,42,22,2
1202,40.35055589675903,60,43,60,88,31,24,31,25,2
1203,40.373059034347534,59,43,61,86,27,25,39,24,2
1204,40.38743472099304,58,40,58,88,29,25,39,24,2
1205,40.41069054603577,57,45,53,99,28,26,40,29,2
1206,40.43243885040283,60,52,53,105,31,25,45,30,2
1207,40.45516657829285,48,52,52,104,32,22,45,29,2
1208,40.47076225280762,44,48,47,104,33,22,40,29,2
1209,40.49281620979309,44,51,56,114,32,23,42,30,2
1210,40.514851570129395,44,49,66,95,32,23,42,25,2
1211,40.53169584274292,44,43,62,84,28,25,41,24,2
1212,40.552347898483276,45,41,61,93,28,27,39,25,2
1213,40.57511568069458,44,44,65,130,27,28,43,28,2
1214,40.5923969745636,47,48,59,123,27,28,41,29,2
1215,40.61278462409973,54,47,44,118,24,29,42,29,2
1216,40.63475751876831,50,46,47,119,31,28,37,28,2
1217,40.65152287483215,51,48,49,127,30,27,39,27,2
1218,40.672460317611694,55,45,48,95,31,24,31,26,2
1219,40.6948881149292,57,41,51,90,33,25,31,26,2
1220,40.71192216873169,49,50,72,101,35,27,34,27,2
1221,40.73266673088074,52,50,76,126,30,27,34,27,2
1222,40.75485372543335,65,50,76,114,29,29,35,26,2
1223,40.77165746688843,62,53,76,111,28,28,36,25,2
1224,40.7925169467926,63,57,77,110,29,30,36,27,2
1225,40.81528639793396,67,54,69,120,28,30,33,26,2
1226,40.831899881362915,70,53,63,95,28,29,33,29,2
1227,40.85249614715576,63,52,68,95,29,29,30,32,2
1228,40.87534308433533,72,57,73,95,32,31,34,31,2
1229,40.892818450927734,68,51,69,105,28,28,35,28,2
1230,40.912532567977905,63,44,61,98,27,27,36,28,2
1231,40.93526363372803,58,46,63,97,28,27,37,26,2
1232,40.95150852203369,53,47,58,101,27,27,39,26,2
1233,40.972574949264526,34,42,50,112,27,28,39,27,2
1234,40.99489688873291,40,41,51,108,28,28,40,28,2
1235,41.01190257072449,47,40,51,103,26,26,38,29,2
1236,41.032283544540405,47,42,48,103,25,27,38,29,2
1237,41.054890871047974,48,44,52,107,31,25,41,27,2
1238,41.071887731552124,54,41,52,95,32,23,38,28,2
1239,41.0918653011322,50,49,58,88,36,23,39,30,2
1240,41.11503863334656,57,50,56,77,35,24,42,28,2
1241,41.130857706069946,59,53,56,109,36,23,41,31,2
1242,41.15193009376526,60,49,50,102,32,25,36,32,2
1243,41.17537045478821,55,48,48,105,29,27,36,33,2
1244,41.192233085632324,66,47,50,104,23,28,37,33,2
1245,41.21217179298401,55,47,51,127,27,29,34,35,2
1246,41.23444676399231,51,42,54,110,30,29,36,32,2
1247,41.25217652320862,52,44,54,107,31,28,35,32,2
1248,41.27272629737854,62,48,59,106,34,26,36,30,2
1249,41.295098066329956,52,41,56,119,36,27,33,30,2
1250,41.31071734428406,54,42,60,113,35,26,35,27,2
1251,41.33219647407532,56,40,58,112,32,26,32,28,2
1252,41.35476565361023,53,39,59,114,31,26,32,29,2
1253,41.37165665626526,43,36,57,128,30,25,30,29,2
1254,41.39244842529297,51,37,53,119,26,24,33,26,2
1255,41.415096044540405,53,43,56,113,26,25,33,32,2
1256,41.43181300163269,52,44,58,111,29,27,33,34,2
1257,41.452436685562134,55,46,64,125,29,26,38,33,2
1258,41.47489547729492,52,45,61,109,27,28,38,33,2
1259,41.492640256881714,52,45,61,108,28,29,39,35,2
1260,41.51254153251648,49,41,53,96,28,26,39,30,2
1261,41.53499174118042,54,45,51,100,25,27,45,28,2
1262,41.55760931968689,52,42,43,76,26,26,41,30,2
1263,41.57406783103943,56,42,46,80,26,27,44,29,2
1264,41.59480810165405,53,42,56,79,26,25,39,28,2
1265,41.6171452999115,57,45,58,109,28,26,37,30,2
1266,41.63215756416321,56,48,63,106,30,24,33,31,2
1267,41.65482759475708,61,51,71,114,29,26,34,38,2
1268,41.67736196517944,59,51,74,117,31,24,32,37,2
1269,41.69267916679382,58,52,70,139,34,28,33,39,2
1270,41.71508026123047,56,54,72,118,35,29,36,37,2
1271,41.73693656921387,64,48,70,118,34,30,34,36,2
1272,41.75206995010376,58,49,68,130,37,29,38,26,2
1273,41.77566933631897,63,53,65,127,39,32,42,29,2
1274,41.798264265060425,64,51,64,106,38,31,46,26,2
1275,41.812424182891846,69,49,65,112,37,28,51,25,2
1276,41.834779500961304,61,52,61,110,37,26,51,27,2
1277,41.85730171203613,65,53,65,96,37,26,50,27,2
1278,41.87374949455261,64,53,64,92,35,24,50,27,2
1279,41.902406454086304,59,53,62,93,34,21,44,29,2
1280,41.9172043800354,53,50,57,84,33,21,37,30,2
1281,41.93234086036682,50,49,60,95,33,22,38,30,2
1282,41.95482778549194,49,51,58,90,32,23,35,28,2
1283,41.97730493545532,47,53,63,89,31,25,33,26,2
1284,41.992347240448,48,51,65,90,29,25,38,26,2
1285,42.01477098464966,44,49,63,101,30,25,38,26,2
1286,42.03736662864685,58,48,59,84,29,28,39,26,2
1287,42.05413031578064,58,46,54,90,32,31,42,30,2
1288,42.07557511329651,57,40,50,92,30,28,43,30,2
1289,42.097533226013184,57,47,56,110,30,29,39,33,2
1290,42.112470626831055,66,51,58,104,29,29,39,33,2
1291,42.13484501838684,57,50,64,111,28,26,36,36,2
1292,42.15731906890869,52,43,66,115,26,21,37,34,2
1293,42.17261481285095,52,46,66,114,29,22,35,34,2
1294,42.1951265335083,74,47,64,90,33,22,40,34,2
1295,42.217270612716675,68,42,63,90,34,22,40,34,2
1296,42.23586392402649,70,48,65,85,36,22,43,30,2
1297,42.25470805168152,73,55,64,83,35,27,39,40,2
1298,42.27736687660217,77,56,61,80,33,27,38,39,2
1299,42.293912172317505,56,52,57,80,27,26,37,38,2
1300,42.31587100028992,53,53,55,79,25,27,38,36,2
1301,42.33759355545044,58,51,50,87,33,31,42,35,2
1302,42.35416126251221,58,46,52,75,33,30,42,25,2
1303,42.37506914138794,51,41,51,76,34,29,43,25,2
1304,42.39734888076782,55,38,53,77,35,28,41,26,2
1305,42.41472506523132,58,44,59,77,40,29,40,25,2
1306,42.43475866317749,60,52,68,78,34,25,38,29,2
1307,42.45739221572876,55,51,65,75,35,21,38,27,2
1308,42.479851722717285,55,53,65,76,37,22,37,29,2
1309,42.49518871307373,57,61,78,81,38,26,40,28,2
1310,42.51727652549744,63,60,77,112,36,29,42,29,2
1311,42.53986072540283,52,54,71,107,34,29,38,26,2
1312,42.55530786514282,54,54,70,112,33,30,36,28,2
1313,42.57744836807251,54,52,71,114,32,30,36,25,2
1314,42.59972357749939,49,46,54,127,29,27,31,24,2
1315,42.61478877067566,46,48,54,107,28,23,33,26,2
1316,42.637303590774536,46,48,52,104,32,23,38,25,2
1317,42.660351276397705,48,46,51,103,31,22,38,27,2
1318,42.67518448829651,49,47,49,107,30,22,39,28,2
1319,42.6972975730896,50,46,50,101,31,21,39,30,2
1320,42.71981906890869,46,38,46,95,32,22,35,31,2
1321,42.734745264053345,46,35,46,96,29,25,31,34,2
1322,42.75796604156494,53,39,53,114,28,26,31,33,2
1323,42.7799072265625,54,38,58,115,27,24,32,34,2
1324,42.794917345047,60,35,58,103,27,27,35,34,2
1325,42.817299604415894,61,38,60,101,29,28,39,30,2
1326,42.839773178100586,68,41,68,111,33,28,50,28,2
1327,42.85479950904846,68,41,64,90,33,28,52,27,2
1328,42.877415895462036,68,41,61,78,33,28,51,27,2
1329,42.900341272354126,59,44,62,77,35,26,51,28,2
1330,42.91483235359192,60,42,62,87,32,22,49,28,2
1331,42.9372935295105,62,36,48,92,26,21,40,31,2
1332,42.96003007888794,53,31,45,90,24,20,37,31,2
1333,42.975051403045654,66,39,49,91,28,24,40,34,2
1334,42.99735713005066,67,39,46,96,28,25,38,36,2
1335,43.019986152648926,66,42,45,108,27,25,40,36,2
1336,43.03484773635864,57,41,49,92,30,26,39,35,2
1337,43.057430028915405,65,44,51,93,30,27,38,37,2
1338,43.07996082305908,54,38,47,93,28,24,36,34,2
1339,43.09480333328247,56,59,64,121,27,25,38,32,2
1340,43.11747622489929,53,65,66,105,27,29,32,32,2
1341,43.139673948287964,65,69,67,110,26,27,30,29,2
1342,43.154762983322144,59,70,66,113,27,26,31,29,2
1343,43.17777991294861,56,71,68,125,27,26,31,27,2
1344,43.19990563392639,56,54,52,100,26,24,28,28,2
1345,43.214820861816406,60,46,58,106,27,20,30,25,2
1346,43.23769807815552,53,44,57,100,27,21,32,27,2
1347,43.26000785827637,65,53,67,104,27,24,36,27,2
1348,43.27514362335205,65,53,67,91,30,25,37,31,2
1349,43.29730033874512,73,58,74,90,29,26,37,30,2
1350,43.32033371925354,70,58,70,78,28,28,40,32,2
1351,43.33486080169678,68,57,72,92,30,28,41,30,2
1352,43.35737109184265,56,45,68,95,29,26,38,29,2
1353,43.379963397979736,56,47,67,94,27,26,39,28,2
1354,43.395047664642334,59,47,63,87,32,30,44,28,2
1355,43.417248249053955,63,48,56,106,32,30,39,28,2
1356,43.440314531326294,64,49,52,100,31,30,41,28,2
1357,43.46231245994568,63,55,53,91,31,31,42,28,2
1358,43.47882127761841,65,53,51,94,29,31,40,25,2
1359,43.499648571014404,55,47,49,106,25,26,33,24,2
1360,43.52228093147278,50,45,55,97,26,23,35,22,2
1361,43.53767228126526,46,43,57,99,26,24,36,22,2
1362,43.56018781661987,59,38,56,99,25,20,33,28,2
1363,43.58248591423035,57,42,63,106,27,24,36,30,2
1364,43.59745907783508,54,41,61,94,27,23,35,31,2
1365,43.62046980857849,57,42,59,87,25,26,35,36,2
1366,43.64248991012573,66,42,54,75,26,26,35,36,2
1367,43.657435178756714,58,41,48,92,26,27,32,33,2
1368,43.67987537384033,59,41,42,87,28,23,33,32,2
1369,43.70239233970642,62,44,45,94,29,24,36,30,2
1370,43.71727776527405,60,41,45,95,29,21,38,26,2
1371,43.7400963306427,50,45,53,106,29,20,37,30,2
1372,43.76233148574829,54,49,64,89,30,23,41,28,2
1373,43.77731966972351,56,46,61,85,26,26,42,30,2
1374,43.79991316795349,51,45,59,83,25,27,41,30,2
1375,43.82228136062622,52,47,62,95,26,29,40,29,2
1376,43.8375027179718,63,58,69,85,28,29,39,29,2
1377,43.860233783721924,55,57,62,94,33,29,39,28,2
1378,43.88249731063843,62,61,66,91,33,27,39,31,2
1379,43.897528886795044,64,61,69,92,34,27,40,30,2
1380,43.91998600959778,64,62,62,89,34,26,41,30,2
1381,43.943429708480835,65,49,53,96,35,28,42,28,2
1382,43.95724058151245,64,43,52,92,30,26,39,27,2
1383,43.979933738708496,52,37,49,101,30,23,35,23,2
1384,44.00233459472656,54,40,59,98,29,22,35,24,2
1385,44.019118547439575,58,44,72,111,36,23,33,26,2
1386,44.03985142707825,47,42,67,104,35,20,34,25,2
1387,44.06237840652466,47,45,71,118,36,21,37,26,2
1388,44.07792329788208,48,50,75,113,38,21,36,26,2
1389,44.1007034778595,46,48,67,113,38,23,41,25,2
1390,44.122270345687866,54,44,55,93,32,22,40,25,2
1391,44.13728952407837,56,53,62,110,35,24,47,27,2
1392,44.15970468521118,57,54,59,104,36,27,49,28,2
1393,44.18351340293884,58,50,53,107,35,27,48,28,2
1394,44.20513558387756,56,48,50,103,34,27,45,30,2
1395,44.2200882434845,46,52,67,128,36,28,48,30,2
1396,44.241995096206665,43,52,65,118,29,28,43,32,2
1397,44.256829261779785,44,52,64,119,36,27,40,32,2
1398,44.27991962432861,42,52,71,116,34,28,39,31,2
1399,44.3026077747345,46,57,74,128,36,26,41,30,2
1400,44.316974401474,58,56,65,103,36,25,41,31,2
1401,44.339396715164185,58,47,62,111,39,24,41,28,2
1402,44.362420082092285,62,50,61,110,33,21,40,30,2
1403,44.385085105895996,83,56,53,107,35,23,43,30,2
1404,44.399829149246216,86,56,61,98,34,24,42,29,2
1405,44.422306299209595,75,53,59,96,33,23,42,28,2
1406,44.444862365722656,75,53,59,89,30,23,42,28,2
1407,44.46045684814453,74,49,60,78,30,25,41,28,2
1408,44.482412338256836,55,46,62,80,31,25,43,26,2
1409,44.50499367713928,47,38,55,79,30,23,42,26,2
1410,44.51985955238342,49,39,51,82,32,25,39,27,2
1411,44.54246497154236,58,44,52,96,34,27,38,26,2
1412,44.56489419937134,55,46,54,98,38,26,40,25,2
1413,44.580177783966064,50,44,52,96,36,25,35,26,2
1414,44.60250902175903,52,45,49,102,35,25,36,28,2
1415,44.62456274032593,57,46,57,109,34,25,37,29,2
1416,44.63941407203674,50,41,57,99,34,21,33,27,2
1417,44.66295576095581,52,40,56,91,33,21,34,26,2
1418,44.684852838516235,56,40,60,92,32,24,36,26,2
1419,44.69976758956909,58,41,66,91,32,24,35,26,2
1420,44.72249364852905,60,41,64,88,33,24,33,23,2
1421,44.74484372138977,62,43,65,76,34,27,34,23,2
1422,44.761221170425415,59,41,63,75,29,25,30,22,2
1423,44.78229570388794,56,46,62,101,32,25,32,24,2
1424,44.80564999580383,55,47,55,92,33,27,32,26,2
1425,44.819695234298706,49,46,48,86,33,29,34,29,2
1426,44.842740058898926,42,44,44,93,32,30,36,30,2
1427,44.86489200592041,41,47,43,113,33,31,39,30,2
1428,44.879703760147095,42,48,46,97,33,30,36,30,2
1429,44.902409076690674,45,47,47,100,31,28,34,28,2
1430,44.92502450942993,47,54,61,101,30,26,37,26,2
1431,44.93998622894287,51,54,61,106,29,26,37,26,2
1432,44.96236968040466,51,52,65,89,29,26,34,28,2
1433,44.984912633895874,48,49,61,85,28,25,41,28,2
1434,44.99967932701111,50,49,57,88,26,26,42,29,2
1435,45.02231192588806,44,47,51,89,24,26,38,27,2
1436,45.04515027999878,43,47,54,81,24,24,39,29,2
1437,45.060320138931274,43,48,52,88,23,23,39,27,2
1438,45.082430362701416,50,52,56,99,24,21,34,29,2
1439,45.10495042800903,49,53,61,95,29,23,35,29,2
1440,45.11997580528259,52,48,59,95,30,21,35,32,2
1441,45.14239549636841,51,51,61,96,31,23,35,29,2
1442,45.16491746902466,63,56,59,106,32,24,37,30,2
1443,45.17979192733765,60,51,53,100,33,26,36,27,2
1444,45.20263123512268,56,49,50,100,30,26,34,28,2
1445,45.22476649284363,54,51,53,111,29,27,36,26,2
1446,45.239760875701904,53,48,49,108,30,25,31,28,2
1447,45.262770652770996,45,43,52,111,32,26,29,27,2
1448,45.28493809700012,43,43,52,111,31,24,32,30,2
1449,45.30857253074646,44,44,58,116,33,26,32,29,2
1450,45.322346210479736,63,43,64,117,34,27,36,30,2
1451,45.34493684768677,67,41,66,122,33,27,39,31,2
1452,45.36858248710632,69,40,64,103,31,26,38,32,2
1453,45.3826265335083,74,52,84,120,32,28,40,29,2
1454,45.40492653846741,80,55,85,126,31,29,42,31,2
1455,45.42858839035034,71,58,81,113,29,27,38,28,2
1456,45.44224834442139,69,57,78,106,29,27,39,27,2
1457,45.46511697769165,62,56,79,131,30,26,39,26,2
1458,45.48854875564575,70,57,71,111,31,28,42,28,2
1459,45.503591775894165,70,57,64,101,31,25,40,27,2
1460,45.52496027946472,65,55,64,132,32,29,38,32,2
1461,45.5481014251709,65,56,65,133,32,30,43,31,2
1462,45.562870502471924,69,57,66,115,29,31,43,33,2
1463,45.584888219833374,55,45,50,113,25,29,38,34,2
1464,45.608168840408325,49,41,53,127,25,29,42,35,2
1465,45.622387409210205,59,37,47,94,26,25,43,33,2
1466,45.645137786865234,67,37,47,98,25,24,38,36,2
1467,45.66799807548523,64,38,41,116,27,27,36,36,2
1468,45.68229842185974,68,39,46,115,27,28,37,33,2
1469,45.70516633987427,66,41,42,95,29,28,35,33,2
1470,45.72807788848877,55,44,47,105,30,30,35,32,2
1471,45.74337458610535,47,54,61,117,34,32,36,30,2
1472,45.76518368721008,53,61,71,107,37,32,40,29,2
1473,45.78813672065735,56,62,70,110,38,31,40,31,2
1474,45.80233430862427,55,61,71,133,41,31,40,30,2
1475,45.825196981430054,55,60,71,125,41,28,40,30,2
1476,45.84749627113342,54,54,64,120,38,26,38,30,2
1477,45.862255573272705,52,47,57,114,37,25,34,31,2
1478,45.88490176200867,51,42,56,119,33,23,36,28,2
1479,45.90750074386597,58,50,69,98,28,24,35,27,2
1480,45.92271900177002,58,51,69,104,27,26,43,24,2
1481,45.944977045059204,61,52,63,104,30,27,45,24,2
1482,45.968090534210205,55,51,65,102,30,26,48,22,2
1483,45.983460426330566,52,52,65,94,31,27,45,25,2
1484,46.00481152534485,56,57,67,90,32,29,50,30,2
1485,46.02821969985962,62,60,73,95,33,28,43,37,2
1486,46.04241728782654,61,58,75,90,32,28,40,38,2
1487,46.06514358520508,62,58,71,80,29,29,39,39,2
1488,46.08877348899841,69,66,80,97,30,33,39,37,2
1489,46.10226106643677,60,57,71,111,28,29,32,35,2
1490,46.12495684623718,56,55,68,100,29,31,36,34,2
1491,46.14765000343323,54,55,73,103,31,29,36,31,2
1492,46.16365599632263,54,53,75,110,31,28,34,31,2
1493,46.18486452102661,50,42,64,93,31,26,34,33,2
1494,46.207555055618286,49,41,57,80,29,27,36,31,2
1495,46.222578287124634,46,37,50,90,29,28,33,25,2
1496,46.245266914367676,53,48,57,86,26,28,35,24,2
1497,46.26757502555847,53,50,59,81,28,28,34,23,2
1498,46.29189610481262,53,48,66,85,27,26,35,27,2
1499,46.3048312664032,53,50,71,86,30,25,32,28,2
1500,46.32754397392273,52,54,78,115,31,22,31,26,2
1501,46.35056447982788,47,49,73,117,33,22,33,28,2
1502,46.365052700042725,51,49,71,122,29,24,33,30,2
1503,46.387760162353516,53,51,68,133,31,25,31,29,2
1504,46.411301612854004,60,53,71,136,35,28,44,33,2
1505,46.424931049346924,63,50,68,109,32,28,46,35,2
1506,46.44722628593445,65,47,64,109,32,27,46,36,2
1507,46.47049617767334,65,47,62,123,33,25,45,35,2
1508,46.48509335517883,55,48,60,112,34,26,47,33,2
1509,46.507261991500854,48,42,52,102,29,25,36,33,2
1510,46.53056883811951,50,46,49,105,28,25,35,33,2
1511,46.544830322265625,51,45,50,103,28,25,37,31,2
1512,46.56744861602783,47,42,49,78,30,24,38,30,2
1513,46.59043312072754,48,40,46,76,27,24,37,30,2
1514,46.61275005340576,49,43,50,107,24,24,38,28,2
1515,46.62764549255371,54,37,48,107,27,24,36,24,2
1516,46.65046787261963,52,42,50,103,30,22,35,26,2
1517,46.66494965553284,54,45,55,99,28,24,35,27,2
1518,46.68732738494873,54,48,62,119,31,23,34,29,2
1519,46.71067571640015,52,45,61,109,34,23,35,27,2
1520,46.72584295272827,45,44,59,107,31,23,36,28,2
1521,46.74756145477295,46,42,56,106,28,27,34,29,2
1522,46.770017862319946,44,39,58,128,30,26,34,28,2
1523,46.784980058670044,43,36,59,118,29,27,39,25,2
1524,46.807453870773315,50,39,56,105,26,27,39,26,2
1525,46.83052158355713,46,39,58,100,27,28,38,25,2
1526,46.84497046470642,41,38,58,117,29,27,37,22,2
1527,46.86682391166687,46,46,56,101,28,30,41,23,2
1528,46.89222574234009,45,46,54,91,28,31,40,23,2
1529,46.90474843978882,48,45,52,92,30,31,39,31,2
1530,46.92716932296753,49,47,57,114,30,31,38,32,2
1531,46.95080780982971,48,48,57,97,27,28,39,33,2
1532,46.9650182723999,50,48,63,96,30,29,40,34,2
1533,46.987348556518555,56,49,62,111,29,28,36,34,2
1534,47.011075019836426,46,47,64,115,29,28,36,28,2
1535,47.024494886398315,50,46,60,98,29,28,36,28,2
1536,47.04741621017456,60,53,65,98,32,30,44,34,2
1537,47.070552110672,67,48,57,103,28,29,42,34,2
1538,47.084996700286865,63,47,63,90,30,28,42,33,2
1539,47.1077082157135,64,54,66,85,34,28,45,35,2
1540,47.130476236343384,65,55,68,82,33,30,46,36,2
1541,47.14487409591675,58,48,63,98,32,27,37,30,2
1542,47.16694688796997,40,51,63,90,33,25,34,30,2
1543,47.191651821136475,41,50,60,90,34,25,35,31,2
1544,47.20468282699585,51,46,57,91,33,26,32,32,2
1545,47.227372884750366,53,46,54,113,35,28,34,32,2
1546,47.250340938568115,58,51,58,101,34,29,35,34,2
1547,47.27303862571716,58,47,54,97,35,31,37,34,2
1548,47.287102460861206,61,46,49,108,35,30,35,36,2
1549,47.310551404953,57,48,57,115,36,29,33,33,2
1550,47.332807302474976,58,47,62,100,36,27,33,34,2
1551,47.34710431098938,51,43,59,102,37,27,35,32,2
1552,47.37020945549011,61,45,58,121,35,25,37,32,2
1553,47.393550395965576,58,47,60,110,35,25,41,30,2
1554,47.40729999542236,54,43,54,109,32,24,39,30,2
1555,47.43058729171753,47,42,56,106,31,21,38,24,2
1556,47.453121185302734,52,42,56,117,31,22,39,29,2
1557,47.46731424331665,51,41,56,97,36,26,37,29,2
1558,47.49086880683899,50,39,55,95,32,27,33,32,2
1559,47.51319217681885,57,40,57,99,38,27,39,32,2
1560,47.527259826660156,71,41,52,111,37,27,41,34,2
1561,47.55059814453125,66,43,49,99,39,26,39,31,2
1562,47.57329297065735,61,41,52,99,34,21,38,31,2
1563,47.587355852127075,66,40,48,101,33,21,40,32,2
1564,47.610556840896606,61,42,42,106,30,24,38,34,2
1565,47.633564949035645,43,42,45,97,30,25,35,32,2
1566,47.64823603630066,54,42,51,97,29,26,36,32,2
1567,47.671005725860596,60,49,52,106,29,28,39,34,2
1568,47.69328165054321,68,60,64,113,33,30,43,36,2
1569,47.70741891860962,70,64,69,97,34,30,43,36,2
1570,47.731107234954834,76,65,67,96,36,31,45,35,2
1571,47.753007888793945,68,65,66,105,34,32,45,36,2
1572,47.76760530471802,66,64,73,106,34,33,44,35,2
1573,47.79055643081665,54,53,65,96,31,31,41,28,2
1574,47.81336331367493,60,57,69,109,29,30,40,28,2
1575,47.82773518562317,53,54,71,121,30,29,40,29,2
1576,47.850109815597534,53,55,71,113,27,27,39,29,2
1577,47.87352395057678,48,51,62,102,29,24,38,28,2
1578,47.88742995262146,51,51,60,106,29,24,39,27,2
1579,47.91020846366882,56,47,58,92,32,25,37,27,2
1580,47.93247175216675,59,52,62,83,35,29,41,29,2
1581,47.94689702987671,58,56,69,83,36,30,39,29,2
1582,47.97045660018921,61,58,71,108,35,32,37,28,2
1583,47.9926073551178,60,61,75,108,37,34,36,30,2
1584,48.00740122795105,60,60,76,113,35,32,38,33,2
1585,48.03046917915344,58,55,69,112,30,31,37,32,2
1586,48.05317449569702,63,50,62,128,32,33,38,31,2
1587,48.075644731521606,62,48,60,109,30,32,38,33,2
1588,48.090599060058594,74,51,60,113,30,30,39,33,2
1589,48.113110303878784,64,46,53,121,32,30,38,28,2
1590,48.12763285636902,68,48,52,111,34,27,35,26,2
1591,48.15116906166077,63,62,65,95,34,28,40,25,2
1592,48.173439502716064,65,68,71,96,36,26,42,23,2
1593,48.19558262825012,56,62,66,99,34,24,43,26,2
1594,48.210532665252686,56,63,64,82,32,25,43,28,2
1595,48.23344111442566,55,66,68,89,31,26,44,28,2
1596,48.256067752838135,60,54,56,96,29,26,43,32,2
1597,48.270519971847534,64,44,45,105,28,26,41,32,2
1598,48.29342341423035,59,46,52,95,28,26,39,28,2
1599,48.315518856048584,58,48,54,95,27,26,38,31,2
1600,48.3304808139801,55,50,57,91,25,25,39,31,2
1601,48.353161334991455,52,47,55,94,26,24,34,27,2
1602,48.375590324401855,58,51,59,91,25,27,33,28,2
1603,48.38999676704407,62,54,62,97,26,28,33,31,2
1604,48.41334795951843,61,52,64,96,26,27,30,28,2
1605,48.43520212173462,69,47,61,108,28,28,26,30,2
1606,48.44949555397034,68,52,69,110,29,27,28,32,2
1607,48.47312092781067,62,54,69,104,30,24,31,30,2
1608,48.49551725387573,58,52,64,98,32,24,30,27,2
1609,48.5106520652771,59,51,63,118,30,25,34,28,2
1610,48.53308653831482,51,58,66,117,31,25,33,27,2
1611,48.55541276931763,51,59,57,103,30,25,36,27,2
1612,48.569746017456055,51,58,59,106,30,27,32,29,2
1613,48.59304928779602,49,58,62,123,27,26,31,30,2
1614,48.61575484275818,49,59,63,107,30,28,31,30,2
1615,48.62985825538635,50,49,55,95,27,27,30,29,2
1616,48.65346574783325,66,51,57,100,28,27,26,27,2
1617,48.67569923400879,64,53,59,100,29,30,32,25,2
1618,48.68989276885986,67,52,59,92,28,31,38,25,2
1619,48.713675022125244,67,54,62,94,27,28,40,25,2
1620,48.73561429977417,69,63,73,123,30,29,43,25,2
1621,48.74991416931152,58,62,76,124,30,29,46,28,2
1622,48.77451491355896,60,59,74,122,28,25,42,29,2
1623,48.79577565193176,56,60,71,122,30,25,39,27,2
1624,48.8122992515564,55,59,66,125,31,27,38,27,2
1625,48.83300232887268,58,59,58,95,32,28,41,30,2
1626,48.855637073516846,62,56,54,90,33,27,43,30,2
1627,48.87001919746399,59,53,50,87,33,28,45,28,2
1628,48.893200397491455,59,50,48,95,31,27,46,28,2
1629,48.915515184402466,59,48,49,89,31,29,45,27,2
1630,48.92986273765564,52,39,45,96,30,27,44,25,2
1631,48.9534125328064,43,37,42,103,29,28,41,23,2
1632,48.97547268867493,47,40,42,107,29,26,40,24,2
1633,48.989847898483276,55,46,52,90,31,28,40,27,2
1634,49.01349663734436,58,46,53,100,31,24,39,28,2
1635,49.03567028045654,55,44,55,114,31,22,36,28,2
1636,49.05015206336975,56,45,59,111,34,24,34,28,2
1637,49.07319474220276,47,42,60,112,33,24,37,28,2
1638,49.09567332267761,42,38,59,112,33,27,41,31,2
1639,49.118221282958984,47,46,68,126,33,30,51,36,2
1640,49.13320994377136,50,49,71,110,33,32,52,35,2
1641,49.15575194358826,50,49,68,107,29,32,56,33,2
1642,49.178330421447754,51,47,66,104,29,33,53,35,2
1643,49.193435192108154,62,53,64,116,30,29,49,33,2
1644,49.21552753448486,58,52,77,107,37,30,42,30,2
1645,49.238983392715454,61,54,78,112,36,28,40,31,2
1646,49.25322437286377,61,52,80,110,36,27,33,32,2
1647,49.27611255645752,66,63,84,122,36,29,37,35,2
1648,49.2980740070343,70,68,89,116,35,30,41,35,2
1649,49.31310987472534,70,63,70,99,28,27,39,33,2
1650,49.335463523864746,70,66,69,94,27,28,41,32,2
1651,49.35833144187927,69,68,69,111,27,27,48,35,2
1652,49.373220920562744,66,61,67,103,28,27,47,30,2
1653,49.39555096626282,59,53,57,94,28,25,46,30,2
1654,49.41828393936157,58,54,52,92,25,24,46,31,2
1655,49.433210134506226,54,48,45,110,26,24,45,32,2
1656,49.4555401802063,63,50,47,94,27,24,40,30,2
1657,49.477495193481445,60,45,48,90,27,22,39,31,2
1658,49.49247336387634,60,40,50,103,27,21,37,28,2
1659,49.51612663269043,59,40,57,111,28,22,33,25,2
1660,49.537635803222656,61,44,68,96,29,23,35,24,2
1661,49.55171585083008,51,38,65,92,27,21,33,23,2
1662,49.57548236846924,61,44,62,90,27,24,33,29,2
1663,49.59809899330139,49,46,63,86,29,25,31,30,2
1664,49.612390995025635,52,45,60,91,28,24,34,32,2
1665,49.63564085960388,54,46,51,84,27,27,34,35,2
1666,49.659523248672485,56,46,55,96,26,28,34,36,2
1667,49.67240643501282,52,40,59,99,25,29,38,33,2
1668,49.695491552352905,59,43,58,98,22,30,39,34,2
1669,49.7180860042572,56,46,54,86,25,31,37,32,2
1670,49.73281717300415,57,41,51,90,23,28,32,30,2
1671,49.75564193725586,53,40,44,81,25,28,38,30,2
1672,49.77951526641846,58,44,35,81,29,25,33,30,2
1673,49.79253077507019,54,40,35,77,34,23,34,28,2
1674,49.81560516357422,70,44,42,79,34,25,38,32,2
1675,49.83799457550049,68,47,42,87,35,24,40,31,2
1676,49.85272479057312,68,51,45,91,34,25,37,32,2
1677,49.875513553619385,60,55,55,90,35,26,37,32,2
1678,49.89803123474121,67,57,57,113,31,29,39,34,2
1679,49.91243886947632,50,53,55,112,34,26,37,32,2
1680,49.93637704849243,49,54,56,108,33,27,39,33,2
1681,49.95814538002014,51,52,59,107,31,28,39,34,2
1682,49.97231960296631,57,49,52,120,29,28,41,33,2
1683,49.995238304138184,47,47,50,98,28,25,38,31,2
1684,50.017542600631714,50,46,56,105,25,26,39,30,2
1685,50.032787561416626,54,44,57,104,27,25,37,30,2
1686,50.05554127693176,51,44,53,112,29,26,36,27,2
1687,50.07798194885254,56,44,56,97,32,24,34,31,2
1688,50.09997344017029,57,46,60,95,38,25,32,29,2
1689,50.115633964538574,69,46,53,92,36,24,32,30,2
1690,50.13808989524841,66,47,54,106,35,26,31,30,2
1691,50.161476135253906,65,47,53,93,35,24,31,31,2
1692,50.17578363418579,67,41,49,92,32,27,30,31,2
1693,50.2001051902771,75,54,57,102,28,31,38,33,2
1694,50.22059988975525,67,60,66,112,30,35,46,33,2
1695,50.234941482543945,69,58,65,101,30,34,49,33,2
1696,50.25797390937805,92,57,68,104,32,35,50,37,2
1697,50.2804536819458,87,57,67,118,31,32,51,34,2
1698,50.29553270339966,80,45,56,109,30,29,47,35,2
1699,50.31755757331848,91,42,59,98,31,28,42,40,2
1700,50.34097218513489,91,42,56,96,33,26,41,39,2
1701,50.35575199127197,68,42,54,112,31,25,41,37,2
1702,50.37770199775696,66,46,55,100,32,25,40,38,2
1703,50.39998650550842,73,57,70,107,33,26,47,42,2
1704,50.41493058204651,61,53,63,106,33,23,42,36,2
1705,50.43908667564392,62,54,66,114,31,25,42,37,2
1706,50.459892988204956,62,55,70,93,33,26,43,36,2
1707,50.476797103881836,61,56,71,88,30,27,43,37,2
1708,50.499603033065796,56,47,58,114,31,26,38,30,2
1709,50.519768714904785,51,47,55,115,31,28,42,31,2
1710,50.53686761856079,50,48,50,101,30,26,40,29,2
1711,50.558942794799805,54,51,56,103,29,25,37,31,2
1712,50.580384254455566,53,46,54,126,30,26,36,28,2
1713,50.595821142196655,50,41,53,105,25,25,33,29,2
1714,50.61833453178406,51,38,57,107,26,23,27,30,2
1715,50.63977646827698,51,43,61,117,28,27,37,32,2
1716,50.662737131118774,51,47,56,121,27,26,38,29,2
1717,50.6792893409729,49,47,57,104,25,25,41,28,2
1718,50.70038390159607,53,47,61,98,26,25,41,27,2
1719,50.71736145019531,60,52,57,111,26,25,44,27,2
1720,50.739198207855225,61,53,54,103,24,25,38,28,2
1721,50.760069131851196,60,46,50,101,27,25,39,28,2
1722,50.78218388557434,70,50,56,99,35,24,37,28,2
1723,50.79911255836487,66,51,56,99,34,23,36,29,2
1724,50.819862365722656,55,46,58,75,33,24,33,27,2
1725,50.84247660636902,58,58,68,77,33,27,39,27,2
1726,50.85937285423279,61,69,77,82,36,30,46,29,2
1727,50.87984323501587,55,70,75,91,32,32,48,33,2
1728,50.90266728401184,54,69,73,99,34,32,52,34,2
1729,50.91887068748474,55,70,71,102,34,32,53,32,2
1730,50.94004726409912,63,63,66,114,36,32,57,33,2
1731,50.96261382102966,61,54,59,115,32,30,51,33,2
1732,50.97944092750549,60,48,53,105,29,27,49,29,2
1733,50.9998722076416,67,54,63,100,28,28,47,28,2
1734,51.02226901054382,68,57,69,107,28,28,51,30,2
1735,51.039677143096924,58,50,69,94,23,24,44,27,2
1736,51.059975385665894,57,52,71,89,23,23,45,27,2
1737,51.08247351646423,56,56,75,100,22,25,44,28,2
1738,51.09951949119568,48,54,67,112,24,24,46,31,2
1739,51.12016797065735,43,51,64,117,23,24,40,33,2
1740,51.14195799827576,42,52,67,120,28,27,40,35,2
1741,51.158427476882935,43,48,62,139,28,27,37,36,2
1742,51.180065393447876,38,44,63,132,31,29,39,35,2
1743,51.202547550201416,38,39,62,118,31,28,34,33,2
1744,51.21906590461731,44,43,61,109,34,32,39,32,2
1745,51.239835023880005,46,47,67,122,33,32,39,32,2
1746,51.26243305206299,53,46,69,109,36,32,40,32,2
1747,51.28103590011597,54,46,66,112,37,29,41,34,2
1748,51.299436807632446,58,53,73,130,37,31,46,33,2
1749,51.321799516677856,60,49,72,128,36,28,42,34,2
1750,51.34004354476929,59,45,58,110,34,25,40,32,2
1751,51.35985279083252,51,46,62,118,33,24,38,31,2
1752,51.38217520713806,64,57,75,119,31,24,39,32,2
1753,51.400075912475586,61,55,73,104,30,23,35,32,2
1754,51.41982364654541,57,54,71,106,29,22,34,32,2
1755,51.442453145980835,55,55,81,116,29,24,37,32,2
1756,51.459556102752686,61,58,86,103,30,33,42,33,2
1757,51.480079650878906,45,50,76,96,33,32,43,31,2
1758,51.50276231765747,52,46,74,104,32,31,44,29,2
1759,51.520463943481445,52,54,85,105,35,33,50,25,2
1760,51.5398211479187,53,53,85,100,37,35,48,26,2
1761,51.56248474121094,49,48,72,100,37,29,44,27,2
1762,51.57969355583191,51,45,72,108,37,30,42,29,2
1763,51.5997416973114,47,44,74,98,39,31,40,29,2
1764,51.622310638427734,52,37,71,99,38,28,38,32,2
1765,51.63952016830444,51,38,68,116,39,24,37,32,2
1766,51.6602737903595,52,38,70,120,37,26,41,32,2
1767,51.68265676498413,54,48,82,125,37,26,39,32,2
1768,51.699183225631714,57,52,83,124,34,27,41,32,2
1769,51.72020936012268,52,50,74,132,32,26,36,29,2
1770,51.74232625961304,55,51,70,116,33,28,39,31,2
1771,51.75899863243103,65,55,71,109,34,29,38,35,2
1772,51.77978157997131,73,52,57,93,35,29,38,34,2
1773,51.80181908607483,71,53,49,106,37,29,39,36,2
1774,51.81898045539856,72,56,52,96,37,32,37,36,2
1775,51.83987069129944,71,58,52,96,35,33,33,35,2
1776,51.86257719993591,65,55,52,95,34,30,32,34,2
1777,51.880640268325806,52,53,55,116,30,29,33,35,2
1778,51.90002727508545,52,56,58,106,30,28,33,35,2
1779,51.92225003242493,51,53,56,104,30,27,38,36,2
1780,51.93908214569092,54,49,56,102,28,25,43,37,2
1781,51.96020221710205,61,51,53,113,27,28,46,35,2
1782,51.98264408111572,66,55,61,99,27,28,45,34,2
1783,52.00480055809021,67,51,65,92,27,31,44,32,2
1784,52.01984214782715,67,51,68,119,28,30,41,31,2
1785,52.042301177978516,63,51,72,121,29,29,38,31,2
1786,52.06485033035278,55,62,76,117,32,29,38,30,2
1787,52.07992935180664,59,56,70,111,33,30,37,27,2
1788,52.102426290512085,55,54,65,115,31,28,36,27,2
1789,52.124908208847046,64,60,70,84,32,34,48,29,2
1790,52.13978552818298,75,63,67,96,33,36,52,28,2
1791,52.162298917770386,72,54,74,94,33,34,50,28,2
1792,52.184829235076904,70,56,71,115,33,32,50,31,2
1793,52.19994759559631,74,55,69,115,33,31,51,33,2
1794,52.22282266616821,67,50,64,118,31,27,39,30,2
1795,52.24492287635803,56,57,69,102,30,27,36,30,2
1796,52.25979685783386,64,52,57,120,28,25,36,29,2
1797,52.28238272666931,61,53,64,110,32,28,39,26,2
1798,52.30544972419739,60,58,78,115,31,31,39,26,2
1799,52.3197922706604,64,69,91,117,32,30,46,30,2
1800,52.34220314025879,68,65,87,123,31,30,45,29,2
1801,52.36479830741882,65,67,90,107,31,31,43,30,2
1802,52.3797607421875,66,71,92,104,33,33,43,35,2
1803,52.40225601196289,64,69,82,92,32,29,41,33,2
1804,52.424233198165894,66,57,69,93,33,28,35,30,2
1805,52.439855098724365,62,52,73,110,33,27,34,30,2
1806,52.46284747123718,56,53,76,127,38,27,36,30,2
1807,52.48486399650574,48,47,69,120,32,25,36,29,2
1808,52.499845027923584,50,48,83,124,34,27,39,30,2
1809,52.52244710922241,53,48,80,117,32,27,37,35,2
1810,52.54495596885681,60,59,82,103,34,27,39,35,2
1811,52.55985379219055,62,59,81,75,27,25,38,34,2
1812,52.58246874809265,69,57,83,94,29,26,35,32,2
1813,52.605127573013306,67,60,74,103,29,25,32,31,2
1814,52.6201057434082,59,62,76,107,28,25,34,30,2
1815,52.641928911209106,54,50,68,101,28,24,30,32,2
1816,52.66492938995361,57,50,69,105,30,25,36,33,2
1817,52.6799590587616,51,49,60,87,29,21,38,34,2
1818,52.70178747177124,52,53,62,83,31,23,41,36,2
1819,52.72451639175415,54,51,60,77,31,23,44,36,2
1820,52.73930048942566,54,52,59,95,29,24,45,34,2
1821,52.76266050338745,53,55,57,90,31,24,37,32,2
1822,52.7846941947937,51,60,65,103,31,24,37,31,2
1823,52.79961562156677,50,59,68,112,32,25,39,33,2
1824,52.82184624671936,47,57,66,131,33,27,34,28,2
1825,52.84481620788574,52,60,68,124,34,26,37,30,2
1826,52.85951018333435,52,66,77,128,38,28,43,32,2
1827,52.8818039894104,60,73,80,131,39,32,44,32,2
1828,52.90481090545654,61,69,76,117,36,32,40,30,2
1829,52.92788481712341,62,70,79,99,36,31,45,31,2
1830,52.942343950271606,61,78,98,113,37,31,44,31,2
1831,52.96490955352783,70,73,91,116,32,30,41,31,2
1832,52.987563610076904,67,63,85,102,27,26,37,31,2
1833,53.002246379852295,66,61,81,106,28,27,39,29,2
1834,53.024832248687744,63,67,94,111,33,29,37,29,2
1835,53.04776072502136,60,61,81,99,34,30,39,27,2
1836,53.06235599517822,56,68,79,90,33,30,38,26,2
1837,53.08491325378418,54,71,79,92,36,29,42,25,2
1838,53.10747456550598,57,72,80,95,36,26,40,24,2
1839,53.122413873672485,59,66,67,85,32,25,39,28,2
1840,53.14491009712219,56,59,57,75,29,26,35,30,2
1841,53.167272329330444,44,46,53,75,31,26,36,30,2
1842,53.18228006362915,42,43,54,84,29,27,33,29,2
1843,53.20482397079468,37,42,55,74,28,28,34,32,2
1844,53.22759294509888,35,40,57,81,28,28,36,29,2
1845,53.24233293533325,35,40,61,84,28,29,38,28,2
1846,53.2649188041687,40,44,65,106,28,29,40,31,2
1847,53.28733706474304,46,47,69,100,29,32,39,33,2
1848,53.30237793922424,61,50,73,108,33,33,45,33,2
1849,53.32505989074707,69,49,67,122,35,32,42,31,2
1850,53.3474817276001,70,52,69,127,35,30,41,29,2
1851,53.362966775894165,67,50,71,114,34,29,38,28,2
1852,53.38510012626648,63,47,66,129,34,26,37,25,2
1853,53.407305002212524,60,43,62,124,31,22,30,23,2
1854,53.42246603965759,54,50,69,105,29,21,33,26,2
1855,53.44516086578369,61,53,73,100,33,22,33,29,2
1856,53.46727180480957,64,53,72,117,33,21,32,28,2
1857,53.48227787017822,63,52,74,98,31,21,31,29,2
1858,53.50482773780823,56,64,87,106,35,22,34,31,2
1859,53.52731776237488,55,65,85,107,37,26,33,28,2
1860,53.54182696342468,58,68,87,125,34,26,34,29,2
1861,53.56490159034729,56,66,83,107,34,27,32,29,2
1862,53.58764696121216,57,68,84,104,35,30,38,30,2
1863,53.60219740867615,55,56,68,99,32,32,34,30,2
1864,53.624826431274414,54,49,64,115,27,29,35,30,2
1865,53.647316455841064,48,47,56,94,31,27,36,28,2
1866,53.66238307952881,49,52,63,98,33,28,39,28,2
1867,53.685213565826416,50,51,63,98,33,25,34,29,2
1868,53.70732808113098,53,50,62,101,32,23,36,25,2
1869,53.72247385978699,52,51,64,85,33,23,38,26,2
1870,53.74483871459961,55,45,64,83,30,23,37,26,2
1871,53.76736521720886,55,43,57,76,32,23,37,25,2
1872,53.7823920249939,59,47,61,91,32,25,38,27,2
1873,53.804946184158325,58,53,70,87,32,25,38,30,2
1874,53.82760500907898,59,56,77,97,35,27,33,30,2
1875,53.843571186065674,61,56,76,98,35,26,36,31,2
1876,53.86476278305054,62,54,75,100,33,26,34,31,2
1877,53.88728880882263,56,52,73,97,34,25,32,30,2
1878,53.91012358665466,57,55,73,97,35,29,29,29,2
1879,53.9249472618103,56,52,65,86,36,26,32,28,2
1880,53.947763442993164,47,54,68,115,37,26,31,26,2
1881,53.9699068069458,46,61,74,121,40,28,30,27,2
1882,53.98483371734619,53,60,75,114,38,28,34,25,2
1883,54.007396936416626,50,52,67,112,39,25,34,23,2
1884,54.02996349334717,63,55,68,112,38,26,33,26,2
1885,54.04588603973389,65,56,69,108,37,26,32,28,2
1886,54.06725335121155,64,50,69,106,34,28,34,29,2
1887,54.089778661727905,58,49,62,104,33,28,32,30,2
1888,54.10485601425171,64,50,67,116,30,28,34,32,2
1889,54.12701463699341,51,47,64,118,26,31,36,31,2
1890,54.14982485771179,53,44,56,94,28,34,35,30,2
1891,54.16523218154907,53,40,47,83,28,29,36,27,2
1892,54.187485694885254,58,43,54,86,33,31,36,28,2
1893,54.209980487823486,53,42,49,88,33,31,35,28,2
1894,54.22470664978027,57,50,60,81,35,29,32,28,2
1895,54.247554063797,55,51,65,86,36,26,37,28,2
1896,54.26978659629822,63,53,66,90,35,25,35,28,2
1897,54.28491568565369,61,54,65,109,30,21,38,28,2
1898,54.307573080062866,61,54,75,96,33,19,44,27,2
1899,54.32975220680237,58,51,69,102,32,20,45,28,2
1900,54.34483504295349,55,50,67,94,29,21,43,28,2
1901,54.36726641654968,60,51,68,111,29,22,48,29,2
1902,54.389758586883545,60,49,66,96,30,26,46,30,2
1903,54.404908895492554,59,48,52,96,28,29,43,31,2
1904,54.427398681640625,59,44,47,92,25,28,41,28,2
1905,54.44995617866516,60,45,51,113,25,28,42,30,2
1906,54.46552538871765,54,41,56,96,24,29,36,29,2
1907,54.48714995384216,54,40,56,92,24,26,35,27,2
1908,54.509724378585815,53,44,60,96,28,23,32,28,2
1909,54.52469491958618,60,46,66,93,31,25,36,30,2
1910,54.547285318374634,58,45,63,73,30,25,32,29,2
1911,54.56992316246033,49,47,58,70,31,24,33,28,2
1912,54.584930181503296,58,50,59,75,28,25,32,31,2
1913,54.60735559463501,58,48,56,84,28,27,33,31,2
1914,54.63011169433594,54,48,52,89,28,27,32,30,2
1915,54.64450740814209,53,46,51,87,28,26,31,29,2
1916,54.66680431365967,70,63,81,112,32,30,40,35,2
1917,54.69001913070679,66,70,85,118,36,31,44,34,2
1918,54.705151081085205,65,68,86,109,36,30,45,34,2
1919,54.727463245391846,63,66,88,107,34,28,43,32,2
1920,54.75005602836609,81,73,88,120,35,32,45,40,2
1921,54.76480269432068,67,62,63,100,34,29,37,37,2
1922,54.78742599487305,62,51,55,93,30,27,33,36,2
1923,54.809834241867065,66,58,61,99,34,30,33,36,2
1924,54.83254528045654,69,67,62,102,36,30,35,36,2
1925,54.84779143333435,53,61,69,99,39,28,35,33,2
1926,54.86981534957886,54,62,77,101,37,30,37,32,2
1927,54.89278697967529,61,65,85,104,39,30,42,34,2
1928,54.907429695129395,64,61,81,98,32,27,41,36,2
1929,54.9297308921814,71,55,78,111,35,26,44,38,2
1930,54.95232176780701,69,52,75,102,31,23,43,33,2
1931,54.967382192611694,67,46,69,105,32,22,41,31,2
1932,54.98988366127014,62,41,61,103,28,23,41,29,2
1933,55.012568950653076,61,43,62,118,30,27,39,26,2
1934,55.02742600440979,48,40,68,116,28,26,44,22,2
1935,55.0493369102478,48,41,65,116,28,29,45,24,2
1936,55.072420835494995,62,57,74,117,32,31,53,29,2
1937,55.08733820915222,62,57,73,123,34,32,50,30,2
1938,55.10985350608826,61,57,71,110,34,30,51,31,2
1939,55.13281011581421,63,59,64,93,32,30,46,32,2
1940,55.14730930328369,61,61,69,93,34,29,47,31,2
1941,55.1698215007782,53,50,58,98,29,26,41,29,2
1942,55.19243407249451,50,55,63,87,28,24,40,26,2
1943,55.21548843383789,59,63,72,93,33,31,49,28,2
1944,55.22997188568115,62,68,79,96,36,33,52,29,2
1945,55.252565145492554,63,65,73,110,34,34,48,31,2
1946,55.26732611656189,58,63,70,101,36,33,48,31,2
1947,55.289875984191895,59,73,84,105,37,35,54,33,2
1948,55.31239628791809,51,67,77,93,35,28,44,34,2
1949,55.327290773391724,45,62,74,103,31,26,40,32,2
1950,55.349767208099365,43,63,78,91,31,26,43,32,2
1951,55.3719265460968,44,67,82,90,30,29,44,33,2
1952,55.38765287399292,51,54,68,86,28,27,42,31,2
1953,55.409794330596924,51,54,73,121,28,27,41,29,2
1954,55.433167695999146,55,54,78,116,30,29,42,29,2
1955,55.44744300842285,53,54,79,116,32,26,39,26,2
1956,55.46979594230652,51,52,79,114,34,25,39,25,2
1957,55.492530822753906,45,50,76,132,34,26,35,28,2
1958,55.507357597351074,43,48,75,104,36,27,37,26,2
1959,55.52986168861389,45,47,68,100,34,26,36,25,2
1960,55.55239248275757,54,57,69,104,31,28,39,25,2
1961,55.56728219985962,60,58,66,107,31,27,35,26,2
1962,55.589762926101685,59,59,65,82,31,28,35,26,2
1963,55.61223793029785,57,61,63,83,26,25,34,27,2
1964,55.63558578491211,52,65,68,99,26,26,33,29,2
1965,55.64994812011719,51,60,67,89,29,25,30,31,2
1966,55.67313575744629,45,60,70,85,30,27,41,32,2
1967,55.68723177909851,53,62,70,90,29,27,42,33,2
1968,55.710139989852905,60,59,72,95,30,28,45,34,2
1969,55.732216596603394,66,54,66,95,31,28,46,36,2
1970,55.74826645851135,65,52,62,96,30,29,47,37,2
1971,55.7700252532959,68,50,61,100,30,30,39,38,2
1972,55.792338609695435,70,50,64,94,31,30,41,35,2
1973,55.8155243396759,65,52,58,93,32,32,40,35,2
1974,55.82987570762634,62,53,58,76,33,32,42,33,2
1975,55.85236835479736,58,54,62,76,30,30,43,30,2
1976,55.87574028968811,63,57,68,79,29,26,47,28,2
1977,55.88985562324524,57,54,66,88,29,25,45,28,2
1978,55.91295599937439,56,54,65,90,27,22,46,26,2
1979,55.93587946891785,57,57,69,95,28,23,44,25,2
1980,55.94977331161499,59,69,87,104,30,25,43,26,2
1981,55.972647190093994,51,67,83,116,30,25,42,26,2
1982,55.99490928649902,49,65,88,113,33,27,42,27,2
1983,56.00989580154419,54,65,87,107,34,27,39,29,2
1984,56.032625675201416,62,62,86,105,33,28,38,32,2
1985,56.05559229850769,60,51,66,121,33,28,41,32,2
1986,56.06982231140137,57,51,69,114,35,28,40,32,2
1987,56.09263586997986,56,52,71,113,33,29,39,32,2
1988,56.11591291427612,64,60,80,115,36,32,42,35,2
1989,56.12968897819519,60,72,94,154,38,30,48,32,2
1990,56.15229773521423,62,70,95,143,38,32,45,31,2
1991,56.175599336624146,64,70,91,140,37,31,42,31,2
1992,56.19049525260925,72,69,88,140,37,26,39,31,2
1993,56.212045431137085,62,63,81,169,33,26,38,30,2
1994,56.23499274253845,54,47,61,134,31,26,28,30,2
1995,56.250351667404175,56,42,56,123,30,23,34,31,2
1996,56.272334575653076,62,37,53,128,31,28,38,34,2
1997,56.29620838165283,62,40,49,139,30,31,43,36,2
1998,56.3101761341095,69,46,54,101,30,28,44,34,2
1999,56.33249855041504,72,51,58,99,29,27,46,33,2
2000,56.35562038421631,73,53,61,121,29,28,45,33,2
2001,56.36993670463562,68,65,69,116,28,29,43,33,2
2002,56.39288115501404,60,70,71,107,33,30,41,33,2
2003,56.41607999801636,67,74,75,111,36,31,42,34,2
2004,56.42994546890259,69,73,75,115,38,32,41,37,2
2005,56.45264148712158,68,76,80,113,41,35,39,39,2
2006,56.47560787200928,72,78,82,114,40,36,41,40,2
2007,56.48979139328003,71,76,87,108,38,39,41,39,2
