,time,chanel1,chanel2,chanel3,chanel4,chanel5,chanel6,chanel7,chanel8,position
0,11.924886703491211,81,98,142,169,44,38,54,58,1
1,11.947565793991089,77,92,133,154,45,37,53,57,1
2,11.964270830154419,72,92,121,108,40,36,50,54,1
3,11.985056400299072,63,84,108,114,31,33,46,48,1
4,12.007442951202393,59,79,107,106,31,30,47,47,1
5,12.024772882461548,45,58,87,113,30,28,46,37,1
6,12.044901132583618,41,52,93,115,28,27,44,36,1
7,12.067376136779785,45,53,97,168,35,27,42,39,1
8,12.085026741027832,52,56,95,193,37,27,44,37,1
9,12.105517625808716,56,63,97,189,40,30,46,40,1
10,12.127505540847778,54,68,113,190,39,29,43,42,1
11,12.14989161491394,57,74,116,199,38,28,41,42,1
12,12.164342403411865,57,78,124,204,37,28,42,41,1
13,12.187611818313599,56,82,128,210,36,29,41,45,1
14,12.209948778152466,56,79,123,207,35,28,40,46,1
15,12.225033521652222,68,97,122,209,40,31,44,54,1
16,12.246814489364624,69,104,133,260,43,32,46,55,1
17,12.269804000854492,69,103,132,231,40,32,47,54,1
18,12.284868478775024,70,101,130,200,42,34,47,54,1
19,12.307364463806152,72,103,133,207,42,38,51,55,1
20,12.329745054244995,65,83,125,198,39,36,49,44,1
21,12.345192193984985,64,73,102,105,35,37,49,45,1
22,12.36752986907959,64,73,104,134,41,40,52,46,1
23,12.391068935394287,60,72,110,138,42,38,53,44,1
24,12.405107736587524,59,75,112,130,39,37,49,42,1
25,12.427277565002441,60,83,112,137,38,37,50,47,1
26,12.449769020080566,61,85,120,137,38,36,51,48,1
27,12.465017557144165,66,88,107,90,33,34,46,48,1
28,12.79480504989624,84,99,270,400,60,43,74,54,1
29,12.809805631637573,84,101,302,499,68,45,77,54,1
30,12.832362651824951,86,105,306,523,71,46,75,54,1
31,12.854909658432007,71,97,308,527,73,41,60,46,1
32,12.869856119155884,81,115,318,517,73,42,62,62,1
33,12.892349243164062,79,118,289,427,62,39,59,63,1
34,12.930046319961548,88,132,306,395,60,44,58,66,1
35,12.94515609741211,93,136,300,368,64,47,63,70,1
36,12.959810256958008,90,128,242,330,58,44,61,69,1
37,12.974942922592163,79,107,227,355,60,41,56,52,1
38,12.997333288192749,80,102,234,358,63,43,63,54,1
39,13.012568950653076,70,84,167,256,53,39,65,52,1
40,13.03533148765564,82,101,165,233,59,45,68,58,1
41,13.049834251403809,79,96,164,242,59,43,67,56,1
42,13.071993112564087,74,94,170,266,56,43,71,53,1
43,13.094198942184448,75,102,208,258,55,44,68,52,1
44,13.109344959259033,78,103,197,252,58,44,78,52,1
45,13.132452011108398,68,85,193,302,49,37,76,46,1
46,13.155579090118408,71,90,207,315,50,38,84,46,1
47,13.169471025466919,73,90,195,278,50,40,80,50,1
48,13.192482233047485,77,86,173,287,49,42,88,52,1
49,13.215942859649658,75,87,175,284,53,45,79,51,1
50,13.229828357696533,66,82,181,258,49,43,75,44,1
51,13.252456665039062,68,84,187,256,50,45,67,48,1
52,13.274961709976196,69,91,213,279,50,41,64,47,1
53,13.290120363235474,65,85,183,264,52,39,51,42,1
54,13.312355995178223,64,85,207,284,49,33,42,44,1
55,13.335257768630981,66,87,208,317,53,32,46,46,1
56,13.349889755249023,70,93,199,337,58,31,46,45,1
57,13.372917652130127,71,98,189,344,64,37,54,48,1
58,13.394746780395508,73,102,188,352,64,39,54,51,1
59,13.409884691238403,87,119,165,354,64,41,60,58,1
60,13.432396650314331,86,115,168,370,63,43,56,58,1
61,13.454745292663574,78,107,162,398,64,43,59,54,1
62,13.46975827217102,77,98,146,370,54,40,51,50,1
63,13.49240255355835,87,105,168,379,58,42,59,52,1
64,13.514824151992798,86,103,179,365,59,45,60,47,1
65,13.529765844345093,87,107,171,302,57,45,63,53,1
66,13.552447080612183,95,118,183,213,58,48,65,66,1
67,13.575037240982056,100,122,196,225,70,51,66,71,1
68,13.597712755203247,91,112,180,192,65,50,63,69,1
69,13.612842321395874,77,92,157,187,62,46,59,65,1
70,13.634840250015259,73,88,168,198,63,43,55,59,1
71,13.657397031784058,73,85,161,208,56,46,67,54,1
72,13.672888994216919,63,78,138,188,43,41,67,47,1
73,13.694741487503052,60,80,135,182,45,41,66,45,1
74,13.717189311981201,60,82,151,189,46,41,67,49,1
75,13.732220888137817,65,86,148,177,47,45,72,53,1
76,13.754931449890137,56,76,136,201,45,38,54,45,1
77,13.777250289916992,55,74,147,212,45,37,52,44,1
78,13.792294979095459,55,80,166,241,45,33,50,47,1
79,13.814785718917847,56,79,153,251,43,36,50,44,1
80,13.845102310180664,53,73,140,253,36,29,49,43,1
81,13.851902484893799,66,88,141,238,35,35,58,50,1
82,13.874272108078003,68,90,130,230,34,37,61,52,1
83,13.90907621383667,65,79,103,204,30,40,60,48,1
84,13.912360668182373,68,76,137,222,31,39,61,49,1
85,13.934744358062744,78,89,157,271,45,47,71,54,1
86,13.956932306289673,67,78,169,255,50,44,68,48,1
87,13.972299814224243,69,77,165,248,49,45,66,47,1
88,13.994554281234741,68,77,172,267,50,41,64,48,1
89,14.01745867729187,72,80,152,258,49,44,69,50,1
90,14.032326936721802,62,66,122,191,37,37,56,44,1
91,14.055485248565674,59,57,106,193,28,33,48,40,1
92,14.077299356460571,56,61,163,286,32,32,51,40,1
93,14.092305183410645,61,64,164,288,35,37,61,45,1
94,14.114851713180542,56,70,157,259,34,34,53,42,1
95,14.13767123222351,52,66,199,287,36,30,55,39,1
96,14.152202367782593,57,70,212,369,38,36,75,46,1
97,14.17552399635315,59,69,180,324,43,35,74,48,1
98,14.19755220413208,61,79,179,310,42,32,70,47,1
99,14.212319374084473,62,76,186,321,44,33,74,46,1
100,14.23478388786316,69,90,158,312,46,36,72,52,1
101,14.257365465164185,67,91,135,204,47,31,58,49,1
102,14.272838592529297,73,94,150,202,46,35,61,52,1
103,14.294814109802246,68,84,149,213,47,35,60,48,1
104,14.317408561706543,73,89,143,222,48,41,62,52,1
105,14.332404613494873,74,86,149,234,49,42,67,51,1
106,14.354636907577515,77,91,163,251,53,44,67,51,1
107,14.377276182174683,75,92,155,237,51,45,68,49,1
108,14.392373323440552,82,104,170,240,54,50,75,52,1
109,14.41489577293396,80,101,172,246,54,47,73,53,1
110,14.439976692199707,79,98,165,254,56,49,75,53,1
111,14.452338218688965,74,93,151,256,52,47,71,49,1
112,14.474859714508057,73,92,139,248,49,42,65,48,1
113,14.49716067314148,70,84,116,231,45,41,58,50,1
114,14.520604133605957,84,100,113,207,47,40,58,56,1
115,14.534915447235107,81,98,95,187,40,34,50,51,1
116,14.557162284851074,81,98,119,197,40,34,55,52,1
117,14.580430030822754,77,94,127,202,40,33,53,51,1
118,14.594884395599365,73,93,136,207,38,28,51,47,1
119,14.617348432540894,65,91,151,202,38,33,51,44,1
120,14.640913963317871,61,89,156,212,41,35,50,46,1
121,14.654710292816162,58,83,150,271,40,34,43,45,1
122,14.677569389343262,68,85,144,270,43,39,51,48,1
123,14.700222492218018,79,92,140,279,47,46,63,53,1
124,14.714184045791626,68,70,114,274,40,39,57,44,1
125,14.737199306488037,71,75,132,257,41,38,57,44,1
126,14.760453224182129,76,80,126,165,43,41,62,45,1
127,14.782915592193604,77,94,138,236,49,40,60,49,1
128,14.797173738479614,70,92,165,244,51,35,49,45,1
129,14.820700645446777,77,104,178,256,53,41,58,48,1
130,14.83506965637207,79,104,160,251,54,43,62,51,1
131,14.857409715652466,77,105,164,260,52,42,60,55,1
132,14.88049602508545,73,95,182,265,46,42,60,51,1
133,14.894681930541992,75,99,164,286,47,41,61,54,1
134,14.917378425598145,70,91,150,275,46,39,54,53,1
135,14.940592765808105,73,96,165,278,44,39,55,52,1
136,14.954685926437378,78,98,166,309,45,41,60,51,1
137,14.97703742980957,76,94,138,259,44,37,55,49,1
138,15.000563859939575,74,91,154,232,42,39,54,49,1
139,15.014722347259521,72,91,164,234,43,36,55,48,1
140,15.03719973564148,71,91,161,238,43,37,54,50,1
141,15.06047797203064,76,105,186,327,57,38,55,57,1
142,15.074848175048828,84,120,197,343,66,43,60,63,1
143,15.097225666046143,86,124,191,344,65,42,58,63,1
144,15.12044882774353,91,123,187,379,67,41,60,64,1
145,15.135088443756104,88,117,181,382,67,43,62,62,1
146,15.157299995422363,90,115,163,277,57,43,60,58,1
147,15.18076229095459,86,102,153,288,47,37,57,52,1
148,15.194651126861572,80,89,136,284,44,36,64,51,1
149,15.217177629470825,76,87,130,266,42,37,62,51,1
150,15.241980791091919,75,91,127,258,46,36,58,52,1
151,15.254692316055298,72,84,162,323,50,35,67,51,1
152,15.277442693710327,71,86,169,295,53,37,71,51,1
153,15.30801272392273,73,88,174,293,55,38,67,52,1
154,15.314652681350708,73,90,181,290,54,38,68,51,1
155,15.337119817733765,72,89,199,295,51,39,66,50,1
156,15.360830783843994,63,82,156,211,44,34,55,45,1
157,15.374630689620972,75,101,155,206,47,37,56,51,1
158,15.39815878868103,82,116,180,281,54,39,56,53,1
159,15.420701742172241,81,119,210,286,57,40,53,54,1
160,15.44327187538147,82,122,208,282,55,37,55,54,1
161,15.456897258758545,82,121,218,295,56,39,56,54,1
162,15.480831623077393,69,107,220,298,52,35,49,53,1
163,15.503315687179565,59,93,203,225,43,32,46,49,1
164,15.51724910736084,60,87,171,252,38,31,48,48,1
165,15.540766716003418,67,94,161,254,39,34,55,52,1
166,15.563055992126465,76,107,167,262,35,39,63,57,1
167,15.577295303344727,83,107,157,292,35,44,72,56,1
168,15.600577592849731,88,111,141,306,35,46,76,62,1
169,15.623332500457764,94,117,150,294,40,48,79,64,1
170,15.637322902679443,91,110,150,330,45,49,80,64,1
171,15.66161298751831,83,95,142,312,46,46,72,58,1
172,15.68292760848999,74,89,158,308,45,41,63,53,1
173,15.697274923324585,65,78,171,318,45,40,56,44,1
174,15.720431566238403,56,69,177,286,42,36,49,41,1
175,15.742820978164673,56,69,178,261,37,38,44,37,1
176,15.7576003074646,54,68,168,272,38,36,44,37,1
177,15.780452013015747,55,73,191,284,40,34,45,39,1
178,15.803353309631348,66,80,186,258,42,35,51,43,1
179,15.81712794303894,69,86,185,296,47,37,54,48,1
180,15.840330123901367,66,84,187,282,67,31,47,48,1
181,15.862917423248291,64,81,200,272,68,30,48,47,1
182,15.877346992492676,71,80,168,260,74,36,57,53,1
183,15.900432109832764,73,83,164,258,72,37,60,54,1
184,15.923941135406494,67,75,145,209,70,37,59,50,1
185,15.937087774276733,69,73,133,210,55,38,62,48,1
186,15.96037483215332,75,83,131,234,54,41,65,52,1
187,15.983681440353394,76,87,150,209,48,40,61,55,1
188,15.996788501739502,80,96,197,259,53,45,72,59,1
189,16.019996643066406,85,107,235,315,53,45,75,59,1
190,16.04241394996643,93,122,248,313,53,52,82,67,1
191,16.05695915222168,102,129,239,310,54,51,85,71,1
192,16.08005452156067,99,130,227,304,52,50,85,68,1
193,16.10344672203064,96,129,204,283,50,44,73,65,1
194,16.117242336273193,96,124,175,321,52,45,71,66,1
195,16.140268325805664,87,108,167,339,45,35,64,59,1
196,16.16240167617798,81,99,166,333,43,36,63,54,1
197,16.17654037475586,80,98,177,389,50,34,60,51,1
198,16.20031476020813,72,80,162,383,50,36,60,48,1
199,16.222813844680786,66,74,151,331,50,34,56,42,1
200,16.23712944984436,68,76,132,307,57,35,53,43,1
201,16.260719776153564,61,71,130,297,56,32,42,40,1
202,16.28278350830078,61,65,115,223,47,33,43,41,1
203,16.29712677001953,64,69,103,195,46,32,43,41,1
204,16.320409059524536,65,68,97,216,44,36,50,43,1
205,16.343066453933716,60,65,101,223,37,33,47,42,1
206,16.357177734375,55,60,103,241,35,32,46,40,1
207,16.380460500717163,48,57,101,259,40,32,45,37,1
208,16.402968883514404,50,64,110,309,40,30,46,40,1
209,16.425641775131226,50,65,113,266,43,28,44,41,1
210,16.440393924713135,65,77,118,287,49,36,63,47,1
211,16.46373200416565,67,83,141,311,51,37,66,46,1
212,16.485255241394043,68,83,144,299,48,37,70,44,1
213,16.500788927078247,64,76,158,276,49,37,70,40,1
214,16.523191690444946,64,75,164,340,48,36,66,38,1
215,16.54544448852539,54,75,176,336,42,31,55,33,1
216,16.560466051101685,73,84,166,319,45,37,62,53,1
217,16.582895755767822,78,90,165,341,51,36,56,57,1
218,16.606085062026978,76,87,152,333,49,36,55,58,1
219,16.62061047554016,82,98,168,304,53,40,61,63,1
220,16.642906665802002,81,93,159,311,55,39,59,62,1
221,16.666177988052368,62,81,158,315,50,33,50,47,1
222,16.680011987686157,61,81,154,284,47,34,54,48,1
223,16.702967405319214,72,88,164,290,49,39,61,51,1
224,16.72567391395569,68,82,165,284,45,36,59,49,1
225,16.740325927734375,68,80,151,273,41,37,57,49,1
226,16.7629292011261,68,80,149,274,43,36,56,49,1
227,16.785797595977783,63,75,161,267,39,33,50,46,1
228,16.79957890510559,52,68,158,272,37,25,40,40,1
229,16.82242202758789,52,64,128,258,38,28,43,37,1
230,16.84469509124756,52,70,153,246,44,27,44,37,1
231,16.85978412628174,53,68,156,272,47,32,49,37,1
232,16.882732629776,54,69,151,309,49,34,53,39,1
233,16.905273914337158,51,69,143,292,47,35,52,37,1
234,16.919139623641968,51,74,159,311,47,32,49,37,1
235,16.942993879318237,56,76,145,306,43,35,55,35,1
236,16.965309143066406,55,75,135,261,41,33,50,37,1
237,16.97965693473816,55,77,135,259,44,34,50,35,1
238,17.002216339111328,57,81,141,277,48,34,49,36,1
239,17.025293350219727,53,72,123,231,80,35,48,35,1
240,17.039637565612793,48,66,151,286,86,31,41,38,1
241,17.06280541419983,52,77,172,329,87,30,43,38,1
242,17.08531427383423,52,77,166,310,88,27,41,38,1
243,17.099860429763794,58,80,173,337,90,29,46,39,1
244,17.122890949249268,61,85,183,341,61,30,47,41,1
245,17.14491844177246,60,85,165,306,49,32,46,40,1
246,17.159566402435303,61,84,142,281,45,32,46,42,1
247,17.18274164199829,59,78,139,280,40,32,48,41,1
248,17.205360651016235,55,72,118,243,34,31,49,43,1
249,17.219830989837646,55,70,101,234,37,33,52,44,1
250,17.24270272254944,53,67,91,217,38,32,51,41,1
251,17.265368223190308,54,64,108,225,42,32,51,42,1
252,17.27953839302063,52,67,111,231,44,31,47,41,1
253,17.302812814712524,50,66,124,201,42,30,44,39,1
254,17.327656269073486,46,65,133,217,36,27,39,37,1
255,17.34028697013855,48,68,139,216,38,26,40,38,1
256,17.363504648208618,45,63,140,187,34,27,43,35,1
257,17.385334491729736,51,62,139,180,35,31,44,38,1
258,17.408676147460938,50,63,145,250,42,33,43,36,1
259,17.422810316085815,51,67,179,274,69,35,45,37,1
260,17.445379972457886,58,72,182,289,77,36,46,39,1
261,17.468075037002563,56,70,196,332,79,34,41,35,1
262,17.48273539543152,56,73,203,337,80,34,42,37,1
263,17.50527334213257,66,82,199,292,79,37,48,41,1
264,17.528973817825317,69,80,173,277,62,37,48,41,1
265,17.542794942855835,64,72,169,270,52,37,54,44,1
266,17.565773487091064,66,74,165,206,48,38,56,47,1
267,17.587926387786865,70,79,189,291,56,40,62,52,1
268,17.602811098098755,68,78,182,292,54,37,59,52,1
269,17.625001668930054,63,75,184,276,48,34,56,50,1
270,17.647544860839844,61,73,181,326,51,35,55,48,1
271,17.661871433258057,60,73,168,348,51,38,58,46,1
272,17.684904098510742,53,65,139,288,39,33,52,38,1
273,17.707180738449097,49,58,187,342,45,35,58,36,1
274,17.721558570861816,57,68,182,361,49,38,66,40,1
275,17.744946479797363,64,80,197,351,49,41,67,45,1
276,17.767432928085327,71,84,195,339,64,39,65,47,1
277,17.7817542552948,74,87,191,375,69,40,65,48,1
278,17.812947511672974,74,87,159,360,67,41,66,49,1
279,17.828022003173828,72,84,157,341,64,39,64,47,1
280,17.841928720474243,71,85,149,341,63,37,65,43,1
281,17.865002155303955,66,84,146,351,51,38,68,46,1
282,17.887611865997314,63,82,161,298,45,38,66,45,1
283,17.902435302734375,62,87,159,310,46,35,57,47,1
284,17.92496371269226,66,98,175,343,54,37,54,46,1
285,17.94783616065979,62,90,172,318,56,36,47,45,1
286,17.96176028251648,57,84,170,298,52,33,38,38,1
287,17.98544716835022,64,89,173,324,55,33,44,40,1
288,18.00825262069702,67,94,172,274,50,33,48,40,1
289,18.022106647491455,63,83,164,277,45,29,45,40,1
290,18.045300006866455,75,88,182,315,43,38,66,52,1
291,18.06771755218506,82,93,186,320,63,41,74,60,1
292,18.081987142562866,76,87,176,302,65,42,73,57,1
293,18.105238676071167,78,82,200,320,70,45,76,56,1
294,18.128032684326172,76,78,210,302,68,45,78,57,1
295,18.142225742340088,79,96,249,341,72,45,79,53,1
296,18.16559076309204,77,98,255,349,57,42,77,45,1
297,18.19560956954956,76,95,248,338,51,41,76,45,1
298,18.20178484916687,70,88,238,327,43,38,72,43,1
299,18.225274562835693,72,88,218,312,42,38,72,42,1
300,18.248194694519043,57,65,151,204,35,33,55,37,1
301,18.261961460113525,53,58,133,201,31,34,49,40,1
302,18.285213470458984,57,65,139,209,34,34,48,42,1
303,18.307681798934937,58,71,154,278,38,33,45,44,1
304,18.330612659454346,57,76,154,290,41,33,46,47,1
305,18.34557557106018,61,81,164,296,41,35,49,48,1
306,18.36731481552124,61,79,169,291,42,32,47,46,1
307,18.390340089797974,63,87,185,309,65,36,54,48,1
308,18.404712915420532,60,83,172,254,64,35,54,44,1
309,18.42805576324463,57,78,182,244,66,33,54,40,1
310,18.449852228164673,57,79,188,249,67,28,52,38,1
311,18.464836597442627,60,84,189,239,66,34,55,41,1
312,18.488243103027344,60,78,183,214,44,31,51,40,1
313,18.510236024856567,70,86,169,298,42,36,64,48,1
314,18.525208473205566,70,86,163,288,36,36,62,48,1
315,18.548115491867065,68,80,137,279,34,36,61,45,1
316,18.570165872573853,69,84,147,323,41,32,60,46,1
317,18.585362434387207,65,82,149,320,40,32,59,45,1
318,18.608229637145996,59,82,157,264,41,28,44,41,1
319,18.630250692367554,69,86,172,301,44,36,54,51,1
320,18.644800424575806,67,85,187,345,46,38,55,53,1
321,18.66783905029297,65,82,180,303,42,39,57,52,1
322,18.69035029411316,68,83,166,320,43,41,62,54,1
323,18.704647541046143,67,75,162,360,42,40,64,52,1
324,18.727767944335938,57,69,157,355,42,34,56,43,1
325,18.750221252441406,54,66,154,331,68,33,57,42,1
326,18.76455855369568,55,59,161,356,70,32,56,39,1
327,18.787955284118652,50,56,185,346,74,28,53,36,1
328,18.810179233551025,51,59,186,284,74,29,53,37,1
329,18.82477307319641,51,57,184,303,74,29,55,35,1
330,18.84893012046814,54,61,193,302,49,32,57,34,1
331,18.87088680267334,63,70,199,330,56,37,71,44,1
332,18.892175674438477,61,66,184,332,52,37,68,44,1
333,18.908966064453125,71,74,174,319,52,42,73,47,1
334,18.93010640144348,76,82,175,276,51,46,76,51,1
335,18.952171802520752,77,84,151,255,51,44,73,53,1
336,18.969433307647705,73,87,138,180,42,41,62,49,1
337,18.9895498752594,74,89,184,255,41,42,65,47,1
338,19.01202392578125,73,92,201,306,50,45,74,47,1
339,19.029366493225098,76,94,197,316,55,44,73,48,1
340,19.0494384765625,84,105,214,372,61,49,83,48,1
341,19.07207441329956,97,116,227,420,71,52,91,56,1
342,19.088823556900024,99,119,192,373,70,53,92,58,1
343,19.109625577926636,95,116,201,366,65,50,84,55,1
344,19.132012844085693,93,115,202,356,64,50,84,55,1
345,19.148864030838013,87,110,199,304,58,47,77,55,1
346,19.16966438293457,72,95,206,295,49,44,68,45,1
347,19.192538738250732,70,91,207,320,51,44,68,47,1
348,19.20892095565796,69,87,180,282,53,43,64,49,1
349,19.229848623275757,64,81,180,296,49,38,56,46,1
350,19.25222158432007,58,72,165,300,49,36,53,46,1
351,19.26940941810608,52,63,124,239,48,33,45,46,1
352,19.289515018463135,52,68,116,215,47,30,42,43,1
353,19.31199026107788,56,80,143,260,45,30,47,46,1
354,19.329591751098633,68,87,135,265,67,38,62,53,1
355,19.349421501159668,69,89,145,249,71,37,61,50,1
356,19.372009992599487,68,91,149,269,69,38,61,50,1
357,19.39461064338684,67,87,156,263,69,38,57,48,1
358,19.409444332122803,66,79,137,218,69,41,57,46,1
359,19.43219804763794,52,72,141,214,47,36,43,36,1
360,19.44950270652771,50,67,146,262,42,36,47,37,1
361,19.469815731048584,54,67,146,240,42,36,51,37,1
362,19.49211072921753,53,64,133,288,39,36,52,37,1
363,19.508997917175293,46,56,132,295,39,33,49,34,1
364,19.529412269592285,57,62,133,308,39,36,59,43,1
365,19.55185031890869,65,70,120,320,40,41,61,47,1
366,19.569443702697754,85,99,163,343,45,48,76,55,1
367,19.5896418094635,85,101,175,343,54,48,77,56,1
368,19.612065315246582,88,106,178,343,53,48,78,59,1
369,19.629135370254517,85,106,177,347,53,46,72,55,1
370,19.649755716323853,83,102,175,355,59,42,67,55,1
371,19.672078371047974,73,97,150,334,54,35,53,47,1
372,19.689184427261353,78,104,151,319,50,38,55,52,1
373,19.709757566452026,76,99,145,344,74,37,53,49,1
374,19.732242584228516,77,96,144,334,74,37,54,48,1
375,19.74789810180664,73,97,150,286,72,37,51,45,1
376,19.7687931060791,68,84,153,332,77,36,49,45,1
377,19.79232406616211,83,104,169,311,82,37,50,54,1
378,19.81000804901123,83,105,164,300,62,36,49,53,1
379,19.829537868499756,83,107,172,330,67,38,57,55,1
380,19.852072954177856,91,116,174,324,64,39,64,56,1
381,19.86893939971924,92,117,182,285,61,42,67,59,1
382,19.890157222747803,76,92,160,285,50,37,62,46,1
383,19.912051916122437,75,90,164,276,51,38,65,48,1
384,19.929667711257935,74,89,163,247,42,37,56,45,1
385,19.94973111152649,70,78,161,311,40,34,56,47,1
386,19.971968173980713,63,66,139,318,38,29,50,43,1
387,19.988876342773438,68,74,150,360,45,34,58,50,1
388,20.009555339813232,81,101,199,389,49,41,65,55,1
389,20.03223991394043,88,116,211,381,53,44,72,62,1
390,20.048954963684082,84,117,214,397,56,46,73,61,1
391,20.069588899612427,88,131,239,400,73,48,75,64,1
392,20.092045545578003,86,128,228,363,78,48,73,62,1
393,20.109817266464233,73,107,192,331,76,41,64,55,1
394,20.12941312789917,65,92,193,328,76,37,64,47,1
395,20.151870727539062,63,92,205,288,76,34,56,44,1
396,20.16879439353943,73,94,202,372,71,42,67,53,1
397,20.189392805099487,79,103,206,379,61,41,69,54,1
398,20.21946120262146,83,107,203,375,63,44,75,58,1
399,20.23433828353882,85,110,184,372,60,44,75,59,1
400,20.24929666519165,91,109,167,356,59,46,82,64,1
401,20.272088289260864,84,98,142,294,46,41,79,57,1
402,20.29438853263855,81,89,155,299,48,42,75,55,1
403,20.309427976608276,81,93,172,299,42,40,69,56,1
404,20.33203887939453,80,94,188,300,44,40,66,56,1
405,20.354307413101196,77,101,204,283,63,40,60,52,1
406,20.369330644607544,70,94,194,217,65,36,48,47,1
407,20.392165660858154,65,97,191,212,66,34,49,46,1
408,20.41494083404541,59,88,174,208,66,31,45,43,1
409,20.42970061302185,53,78,156,198,69,30,40,40,1
410,20.45177412033081,65,85,134,228,51,33,45,45,1
411,20.47486901283264,67,90,151,260,53,34,48,46,1
412,20.489754915237427,68,89,167,299,53,35,50,45,1
413,20.512344360351562,72,97,167,300,53,37,57,48,1
414,20.53442931175232,69,96,173,289,46,37,54,48,1
415,20.54938268661499,73,102,183,280,53,36,60,49,1
416,20.572075843811035,88,117,196,299,56,43,74,53,1
417,20.594333171844482,89,116,195,294,52,43,74,53,1
418,20.609392642974854,96,123,202,308,53,47,84,56,1
419,20.63263726234436,99,125,199,331,56,49,92,58,1
420,20.65485692024231,90,108,183,317,49,47,88,53,1
421,20.66937017440796,85,98,172,290,39,45,76,53,1
422,20.692503213882446,82,93,146,243,40,45,75,52,1
423,20.714452505111694,75,87,157,234,38,40,60,46,1
424,20.72974395751953,72,89,176,244,41,37,52,43,1
425,20.751879930496216,67,91,184,268,48,35,46,42,1
426,20.77441120147705,57,80,167,252,48,30,46,38,1
427,20.78934144973755,92,114,173,280,53,39,70,56,1
428,20.811771631240845,95,114,164,321,56,41,72,59,1
429,20.83433985710144,96,112,139,302,53,41,72,61,1
430,20.84953212738037,101,116,161,371,55,45,81,64,1
431,20.871887683868408,103,123,161,376,55,45,79,67,1
432,20.894433975219727,74,95,161,349,50,39,59,54,1
433,20.909488201141357,74,96,201,416,50,41,62,55,1
434,20.93213391304016,76,96,196,416,51,45,69,57,1
435,20.95435070991516,70,90,176,338,43,41,59,54,1
436,20.969520568847656,71,91,208,400,46,41,67,53,1
437,20.991743087768555,77,99,211,426,49,46,70,57,1
438,21.014448404312134,69,90,165,320,47,42,65,52,1
439,21.02987551689148,65,89,167,333,67,39,55,48,1
440,21.0520601272583,67,92,168,356,71,40,60,47,1
441,21.07477378845215,60,77,123,289,71,37,49,42,1
442,21.089365005493164,57,69,124,365,69,33,54,41,1
443,21.112278938293457,55,66,158,379,68,32,54,39,1
444,21.134331464767456,58,66,197,469,50,37,63,42,1
445,21.156836986541748,68,78,192,467,52,38,64,48,1
446,21.172109842300415,73,83,205,460,43,39,65,46,1
447,21.1946222782135,74,84,200,412,48,41,59,46,1
448,21.216862440109253,82,87,218,454,53,51,76,53,1
449,21.23268985748291,84,93,216,388,60,50,74,52,1
450,21.254334926605225,75,91,245,497,61,50,72,46,1
451,21.277133226394653,71,90,247,510,63,50,72,47,1
452,21.292267560958862,68,89,266,498,61,49,73,47,1
453,21.314483642578125,62,90,237,531,66,39,58,44,1
454,21.33681559562683,59,83,221,529,60,36,61,46,1
455,21.351852655410767,61,73,214,433,79,35,69,50,1
456,21.374210119247437,69,81,211,432,94,39,76,54,1
457,21.396838665008545,72,91,194,456,102,38,75,53,1
458,21.41199517250061,78,90,193,393,96,38,76,53,1
459,21.435499906539917,82,95,196,481,99,41,73,54,1
460,21.456838607788086,78,95,172,467,79,38,64,48,1
461,21.471768140792847,77,92,180,535,65,39,64,48,1
462,21.494606256484985,75,89,186,512,59,41,75,49,1
463,21.516789197921753,67,85,182,502,61,41,75,46,1
464,21.53175640106201,74,86,186,412,56,41,76,50,1
465,21.55428409576416,109,126,211,466,56,47,89,73,1
466,21.577259302139282,107,127,205,393,50,43,84,70,1
467,21.59223175048828,109,123,187,384,41,43,76,70,1
468,21.61431336402893,118,135,199,451,53,46,75,76,1
469,21.63733720779419,118,135,194,454,54,48,78,79,1
470,21.651264190673828,91,105,173,417,56,44,64,63,1
471,21.675475597381592,91,101,174,447,59,45,67,62,1
472,21.69645595550537,93,103,182,467,61,44,71,63,1
473,21.711987018585205,94,108,195,416,52,44,73,63,1
474,21.733814001083374,91,109,195,426,53,43,68,57,1
475,21.757036685943604,87,103,182,411,52,42,65,52,1
476,21.77209210395813,86,106,192,374,51,41,62,56,1
477,21.79391312599182,84,117,231,418,59,41,63,59,1
478,21.81630301475525,73,101,239,462,62,41,65,55,1
479,21.832154273986816,75,111,247,434,69,41,67,57,1
480,21.854543924331665,74,114,260,455,72,41,67,56,1
481,21.877055168151855,70,109,251,453,72,40,65,52,1
482,21.8924081325531,68,96,215,460,65,42,63,52,1
483,21.91493797302246,84,115,182,398,66,44,71,58,1
484,21.937103271484375,82,107,167,393,62,45,70,58,1
485,21.95198082923889,84,108,153,378,57,45,67,60,1
486,21.974490880966187,87,109,153,403,56,44,69,61,1
487,21.996737480163574,92,115,155,338,59,42,72,62,1
488,22.011845588684082,88,110,157,346,54,40,65,62,1
489,22.03422212600708,92,112,145,357,47,40,64,62,1
490,22.05717444419861,93,113,149,333,49,41,65,61,1
491,22.071778059005737,91,111,133,279,51,43,63,65,1
492,22.09408164024353,96,124,250,368,57,50,77,64,1
493,22.11635971069336,92,125,268,350,62,51,79,59,1
494,22.13928723335266,84,115,276,341,61,47,77,53,1
495,22.155147552490234,87,119,313,390,63,51,91,60,1
496,22.176796436309814,94,130,317,442,62,52,93,61,1
497,22.19933032989502,88,120,244,351,55,47,84,62,1
498,22.21422505378723,84,110,229,376,52,47,83,60,1
499,22.236736059188843,88,118,239,390,57,50,82,63,1
500,22.259244680404663,87,115,193,374,54,48,68,59,1
501,22.274640560150146,84,110,191,330,52,48,67,56,1
502,22.296778202056885,76,101,168,340,53,44,56,48,1
503,22.319259881973267,70,94,163,313,49,39,46,46,1
504,22.334264278411865,77,90,143,346,50,43,60,52,1
505,22.35772395133972,76,90,132,334,50,41,62,53,1
506,22.379181385040283,71,78,152,338,53,41,65,51,1
507,22.395365953445435,70,76,170,398,48,41,65,52,1
508,22.4167160987854,79,85,177,453,55,45,73,57,1
509,22.43967080116272,63,73,171,405,50,37,59,47,1
510,22.454208850860596,65,75,205,494,59,40,68,46,1
511,22.47718095779419,66,76,217,506,59,39,70,48,1
512,22.49898672103882,72,91,239,466,60,41,78,49,1
513,22.514424085617065,74,97,262,541,63,45,84,50,1
514,22.53681707382202,78,102,268,539,62,46,87,51,1
515,22.559433698654175,77,101,244,467,54,46,81,51,1
516,22.574336051940918,76,103,223,495,55,45,77,49,1
517,22.5968656539917,69,88,193,520,57,41,67,47,1
518,22.619601488113403,62,77,199,460,55,33,53,40,1
519,22.633682250976562,68,80,237,523,58,35,60,43,1
520,22.656693935394287,82,89,236,537,58,39,71,52,1
521,22.679441690444946,84,91,245,493,57,40,74,54,1
522,22.69611382484436,88,102,270,489,51,40,76,56,1
523,22.716365337371826,100,120,258,408,44,47,82,63,1
524,22.739700078964233,100,125,217,336,42,47,80,64,1
525,22.754287481307983,87,117,224,317,44,41,66,55,1
526,22.779407739639282,86,118,216,307,42,42,67,56,1
527,22.799236297607422,84,112,185,283,46,42,66,55,1
528,22.81426191329956,69,95,175,356,45,37,58,47,1
529,22.83674716949463,58,80,172,362,43,33,52,42,1
530,22.859404802322388,62,87,181,334,40,35,57,41,1
531,22.874253511428833,65,95,198,344,50,35,56,44,1
532,22.897072315216064,70,98,202,325,48,38,60,43,1
533,22.919355869293213,70,91,189,279,49,39,63,42,1
534,22.935118198394775,72,93,189,272,51,37,60,42,1
535,22.956756591796875,67,84,189,374,52,36,58,42,1
536,22.97933006286621,61,74,214,418,43,34,58,34,1
537,22.994224786758423,53,69,229,420,42,32,57,31,1
538,23.017144680023193,57,78,223,415,44,26,51,31,1
539,23.039193153381348,58,80,221,423,42,28,57,35,1
540,23.061821460723877,61,85,205,326,40,29,61,39,1
541,23.07714295387268,64,83,182,416,40,33,67,43,1
542,23.099214553833008,67,82,182,468,45,35,75,46,1
543,23.12166953086853,61,75,199,484,48,40,78,48,1
544,23.137064218521118,62,76,233,568,59,39,81,47,1
545,23.15940523147583,64,81,247,580,62,38,75,45,1
546,23.19031596183777,66,80,232,481,62,37,73,47,1
547,23.19679045677185,84,112,245,478,62,40,73,53,1
548,23.21932315826416,95,122,229,454,56,40,75,59,1
549,23.241950273513794,98,126,198,351,44,41,70,61,1
550,23.256716012954712,110,135,188,365,46,49,82,74,1
551,23.279188871383667,110,138,186,365,48,51,81,73,1
552,23.301873683929443,98,116,141,292,45,48,75,70,1
553,23.31725811958313,86,102,149,323,46,45,69,63,1
554,23.3392653465271,81,97,149,315,48,43,70,61,1
555,23.362723350524902,62,74,175,346,52,35,59,41,1
556,23.376837015151978,62,73,173,358,51,36,56,43,1
557,23.39927911758423,57,67,177,381,49,34,51,40,1
558,23.421674013137817,63,74,177,355,50,38,55,44,1
559,23.43671488761902,63,74,184,333,48,38,53,46,1
560,23.459574937820435,61,78,163,337,45,37,48,47,1
561,23.481661081314087,55,77,176,338,47,31,46,42,1
562,23.49668002128601,54,75,179,302,49,32,48,43,1
563,23.519311904907227,65,88,183,327,54,34,52,48,1
564,23.541617155075073,76,98,175,360,57,42,62,52,1
565,23.55712366104126,77,93,167,302,56,42,62,50,1
566,23.57931113243103,76,91,159,336,55,42,61,50,1
567,23.602237939834595,76,90,155,352,57,43,65,50,1
568,23.61681294441223,68,75,150,365,52,40,62,46,1
569,23.639512538909912,54,56,166,353,47,32,56,39,1
570,23.661755323410034,57,60,172,377,46,36,64,41,1
571,23.67655324935913,71,66,176,340,49,41,72,48,1
572,23.69955086708069,80,85,175,335,52,43,72,49,1
573,23.721987009048462,77,88,203,338,52,43,71,47,1
574,23.736275672912598,77,93,203,338,55,44,69,49,1
575,23.75896906852722,75,95,230,398,59,42,62,50,1
576,23.781977653503418,76,106,258,453,64,49,70,54,1
577,23.796695709228516,68,95,250,448,60,48,67,52,1
578,23.819567918777466,80,103,238,431,62,52,75,58,1
579,23.841691255569458,82,107,246,432,64,52,76,59,1
580,23.856055974960327,80,102,211,358,57,52,76,58,1
581,23.879411697387695,74,92,178,275,50,44,66,51,1
582,23.90165400505066,79,97,188,286,51,46,65,54,1
583,23.916682481765747,65,83,170,249,45,39,54,48,1
584,23.93944239616394,65,81,167,261,46,40,55,51,1
585,23.96166682243347,75,96,183,287,49,41,59,57,1
586,23.976727724075317,71,91,192,292,45,37,50,56,1
587,23.998645782470703,68,85,196,318,49,36,55,53,1
588,24.02158236503601,105,123,199,404,55,47,76,75,1
589,24.04491114616394,105,119,180,396,49,45,76,73,1
590,24.05966353416443,103,115,178,395,51,46,79,71,1
591,24.081628799438477,112,127,176,417,58,50,85,74,1
592,24.104950428009033,112,129,185,419,54,49,85,73,1
593,24.11992883682251,79,90,178,363,52,40,66,52,1
594,24.142080307006836,84,98,179,377,61,44,66,56,1
595,24.164803743362427,88,101,170,372,59,41,61,56,1
596,24.179123401641846,81,91,180,377,61,39,59,53,1
597,24.20126986503601,92,101,168,405,66,44,68,61,1
598,24.224434852600098,92,105,186,417,65,44,68,58,1
599,24.239267349243164,85,100,188,388,56,39,67,53,1
600,24.26159405708313,84,102,206,387,53,42,73,52,1
601,24.284770727157593,87,108,226,394,46,47,85,58,1
602,24.299015283584595,81,112,259,374,40,45,83,56,1
603,24.32163429260254,94,124,257,403,46,48,85,63,1
604,24.34487009048462,98,127,275,464,51,51,89,67,1
605,24.359185457229614,93,119,263,450,50,52,83,66,1
606,24.381321668624878,88,111,234,440,48,47,70,62,1
607,24.40490412712097,99,120,208,417,54,52,82,65,1
608,24.419354915618896,92,110,206,353,53,50,81,60,1
609,24.441607236862183,92,108,208,305,49,48,80,58,1
610,24.46488046646118,90,112,231,387,58,45,79,55,1
611,24.479161262512207,96,118,238,365,59,48,86,57,1
612,24.501887798309326,84,98,233,373,53,43,78,50,1
613,24.52483034133911,94,117,229,373,55,46,82,60,1
614,24.539172887802124,100,125,203,376,58,48,85,62,1
615,24.562407732009888,103,125,171,301,50,53,89,66,1
616,24.584829568862915,117,142,162,337,54,57,91,75,1
617,24.599345207214355,120,150,167,349,58,56,87,77,1
618,24.62201166152954,122,151,184,372,60,56,85,72,1
619,24.644800186157227,120,148,188,389,61,58,89,74,1
620,24.667364597320557,127,159,230,458,68,60,95,76,1
621,24.681610822677612,113,141,264,482,62,54,92,66,1
622,24.704867601394653,111,139,281,533,60,59,101,68,1
623,24.719408750534058,106,130,269,515,56,59,103,70,1
624,24.742316484451294,104,128,273,495,53,56,100,67,1
625,24.76500153541565,97,116,261,434,45,52,94,62,1
626,24.779421091079712,93,113,220,372,49,51,85,61,1
627,24.80348539352417,86,103,208,329,45,45,70,57,1
628,24.82482886314392,83,99,240,486,57,46,83,56,1
629,24.83928942680359,85,105,256,485,61,45,83,57,1
630,24.861982107162476,79,97,241,500,60,43,81,57,1
631,24.884912967681885,90,118,261,545,63,47,89,63,1
632,24.899121284484863,91,120,272,506,63,46,92,62,1
633,24.92198920249939,85,110,238,358,51,39,73,56,1
634,24.94520592689514,76,98,219,395,49,39,71,51,1
635,24.967538833618164,74,97,218,381,48,40,73,51,1
636,24.981773614883423,61,72,205,341,55,38,65,46,1
637,25.005073308944702,59,69,180,408,65,39,58,48,1
638,25.027961254119873,60,72,181,416,65,40,59,48,1
639,25.04167079925537,66,80,175,382,65,40,60,53,1
640,25.064871788024902,75,87,170,394,66,42,65,57,1
641,25.08756995201111,69,84,167,485,60,39,61,53,1
642,25.1016206741333,66,75,144,452,47,36,57,47,1
643,25.12481164932251,69,73,147,477,50,36,61,48,1
644,25.14750337600708,64,72,186,540,51,34,54,43,1
645,25.161729097366333,63,75,197,548,61,36,54,46,1
646,25.184895277023315,67,77,188,463,58,36,56,49,1
647,25.207407474517822,68,83,219,447,58,37,57,49,1
648,25.221842050552368,61,80,226,433,57,36,55,46,1
649,25.245155572891235,62,73,205,385,51,37,58,47,1
650,25.267875909805298,51,71,208,364,40,31,46,37,1
651,25.281638622283936,51,68,214,346,37,34,49,36,1
652,25.30498433113098,48,62,183,376,41,34,51,35,1
653,25.32732129096985,55,76,210,408,42,35,56,39,1
654,25.341593980789185,61,89,209,365,42,35,58,45,1
655,25.36484169960022,67,93,229,389,48,39,69,47,1
656,25.3879611492157,73,102,240,443,51,41,76,49,1
657,25.401702880859375,88,117,255,424,53,48,84,60,1
658,25.425514459609985,88,114,226,371,52,48,80,59,1
659,25.447749137878418,84,108,238,450,63,49,81,57,1
660,25.461581468582153,83,100,205,427,64,48,83,57,1
661,25.48473358154297,78,94,195,380,62,44,75,54,1
662,25.50732922554016,62,78,181,421,62,37,64,43,1
663,25.52159357070923,60,70,187,439,63,37,64,43,1
664,25.545119047164917,64,74,161,373,51,34,58,42,1
665,25.56683850288391,61,75,155,373,47,30,41,39,1
666,25.58160710334778,68,91,164,377,48,31,46,41,1
667,25.605079889297485,68,89,159,330,43,33,46,40,1
668,25.62691307067871,67,91,152,373,41,29,42,42,1
669,25.64233374595642,65,86,151,376,41,32,46,44,1
670,25.664101362228394,77,95,165,366,43,36,54,49,1
671,25.687263011932373,73,83,165,362,43,37,52,48,1
672,25.7019944190979,82,92,174,393,46,40,74,57,1
673,25.72474956512451,84,97,191,368,52,45,79,58,1
674,25.747244834899902,89,108,211,352,50,46,82,61,1
675,25.761728763580322,88,113,215,378,48,48,85,64,1
676,25.78486919403076,89,113,220,412,51,47,87,64,1
677,25.807392120361328,80,110,231,425,47,44,72,57,1
678,25.821818351745605,88,116,235,431,47,44,72,58,1
679,25.852399826049805,83,106,240,468,54,43,73,51,1
680,25.86719250679016,88,108,235,461,54,41,66,50,1
681,25.88149905204773,91,106,254,471,52,43,66,54,1
682,25.90376091003418,102,108,260,509,53,51,80,61,1
683,25.927726984024048,95,99,246,497,47,47,79,59,1
684,25.950021743774414,94,102,240,488,48,46,74,60,1
685,25.96408224105835,82,90,259,521,53,45,77,56,1
686,25.988229274749756,84,95,234,495,55,45,81,55,1
687,26.010257482528687,72,90,209,419,55,36,66,47,1
688,26.024341821670532,69,84,209,408,56,35,64,47,1
689,26.04756212234497,67,79,181,374,48,36,63,46,1
690,26.06934642791748,64,72,157,301,41,34,56,45,1
691,26.084192276000977,55,66,163,343,42,32,53,42,1
692,26.10719060897827,53,63,162,352,41,33,51,42,1
693,26.129822492599487,66,79,157,344,42,39,55,49,1
694,26.144537210464478,77,97,195,394,52,44,66,55,1
695,26.167524337768555,77,97,188,414,55,44,66,54,1
696,26.18984317779541,77,97,175,363,51,41,61,51,1
697,26.204232692718506,77,99,173,346,51,41,59,49,1
698,26.22674822807312,64,87,190,365,49,35,52,40,1
699,26.249993801116943,61,77,156,340,43,30,54,39,1
700,26.264012813568115,61,76,159,330,40,30,54,41,1
701,26.28736901283264,65,86,180,371,50,33,55,46,1
702,26.310414791107178,66,84,177,362,51,32,54,48,1
703,26.324042558670044,70,90,159,350,50,32,56,51,1
704,26.347558975219727,63,88,178,373,55,32,51,46,1
705,26.369637489318848,66,91,175,408,57,33,53,46,1
706,26.3835027217865,60,80,161,384,48,32,53,43,1
707,26.407537698745728,59,78,174,417,48,31,56,42,1
708,26.429624795913696,54,70,183,414,50,32,56,39,1
709,26.444350719451904,47,58,186,375,40,29,49,34,1
710,26.46733522415161,44,56,197,410,42,31,53,35,1
711,26.48971724510193,51,59,193,430,42,33,58,39,1
712,26.504076719284058,52,64,211,440,41,37,63,41,1
713,26.528631925582886,63,79,244,507,45,40,78,45,1
714,26.549972772598267,74,94,257,530,50,44,88,53,1
715,26.564216375350952,81,103,251,462,46,45,90,54,1
716,26.58710551261902,80,103,256,472,49,45,86,51,1
717,26.60995316505432,83,105,249,438,49,45,84,53,1
718,26.62418556213379,75,97,226,375,45,45,72,50,1
719,26.64739155769348,65,85,217,349,43,39,55,43,1
720,26.670000553131104,58,71,228,375,45,38,50,40,1
721,26.684141635894775,62,69,210,323,41,37,51,42,1
722,26.70745825767517,66,73,203,344,40,36,55,45,1
723,26.729684591293335,71,76,183,334,44,35,54,47,1
724,26.744341373443604,73,71,167,336,41,38,60,51,1
725,26.767683506011963,83,92,161,321,40,41,70,55,1
726,26.78998351097107,78,94,217,456,53,40,69,51,1
727,26.80433940887451,76,103,236,487,58,42,78,49,1
728,26.82725238800049,77,109,272,488,57,44,81,53,1
729,26.84976863861084,75,112,280,537,65,44,84,51,1
730,26.872414588928223,63,100,287,563,67,41,76,49,1
731,26.887165307998657,67,103,265,462,60,40,75,49,1
732,26.909908771514893,71,109,270,470,62,41,73,50,1
733,26.932667016983032,70,102,246,518,62,38,70,44,1
734,26.94729733467102,75,106,242,483,60,38,68,45,1
735,26.96938180923462,81,108,235,498,58,38,71,46,1
736,26.991950750350952,79,106,246,537,60,39,74,51,1
737,27.0074679851532,68,87,232,480,55,36,63,48,1
738,27.029852867126465,71,92,229,514,61,39,67,54,1
739,27.052339792251587,65,86,219,506,59,37,62,50,1
740,27.067334175109863,56,78,235,508,59,36,61,48,1
741,27.09006977081299,61,74,212,486,55,39,65,47,1
742,27.112571954727173,69,78,196,487,52,41,70,49,1
743,27.12688684463501,63,72,234,416,44,37,70,41,1
744,27.149754285812378,76,83,314,550,50,44,87,56,1
745,27.172289609909058,79,87,306,512,52,46,90,56,1
746,27.18643355369568,74,85,299,490,51,44,84,55,1
747,27.20975399017334,79,88,322,548,52,46,87,58,1
748,27.23227047920227,79,85,304,528,49,47,84,59,1
749,27.246578216552734,90,109,230,371,47,48,81,60,1
750,27.269850492477417,100,126,276,474,54,52,88,69,1
751,27.292412281036377,98,124,285,496,56,51,86,66,1
752,27.305939435958862,103,139,283,444,63,51,85,67,1
753,27.329996347427368,106,142,268,449,66,52,91,69,1
754,27.352235317230225,88,119,256,431,60,44,77,57,1
755,27.36648654937744,74,98,183,300,56,36,62,49,1
756,27.389588117599487,115,139,179,283,66,53,84,71,1
757,27.41243028640747,107,122,135,305,60,53,78,69,1
758,27.426541805267334,108,125,156,294,59,51,69,67,1
759,27.449724674224854,112,128,150,334,65,52,72,68,1
760,27.472280025482178,117,133,164,326,61,52,76,71,1
761,27.487035989761353,81,93,159,312,49,35,52,51,1
762,27.509664058685303,78,92,194,308,52,35,57,52,1
763,27.53219509124756,78,90,199,331,55,39,66,56,1
764,27.546852588653564,74,88,207,324,52,38,68,56,1
765,27.570089101791382,64,81,196,336,52,37,62,48,1
766,27.592230558395386,64,84,221,389,57,40,71,48,1
767,27.606667041778564,62,82,195,386,56,37,68,45,1
768,27.62961483001709,50,72,174,357,49,32,60,39,1
769,27.653507709503174,52,70,165,349,49,33,56,41,1
770,27.666534900665283,62,74,184,338,52,35,61,48,1
771,27.690003871917725,59,69,147,263,44,30,49,46,1
772,27.712390661239624,74,95,196,321,46,38,64,56,1
773,27.726438283920288,84,105,209,321,48,45,72,61,1
774,27.74975824356079,85,106,216,336,46,44,73,58,1
775,27.772154808044434,85,108,216,389,47,46,77,57,1
776,27.786423921585083,87,106,235,400,49,46,80,57,1
777,27.80979037284851,73,81,218,408,41,40,70,49,1
778,27.831711769104004,70,84,226,477,47,34,69,46,1
779,27.854084491729736,76,91,232,466,43,39,80,52,1
780,27.87015438079834,74,94,224,423,39,39,79,50,1
781,27.892308950424194,78,105,228,422,40,40,77,50,1
782,27.914757013320923,90,119,228,347,39,41,79,53,1
783,27.929324626922607,91,118,213,273,52,45,82,55,1
784,27.95218300819397,81,108,210,271,53,40,70,48,1
785,27.974604845046997,79,104,211,300,54,39,69,48,1
786,27.989672422409058,74,97,212,424,60,39,70,47,1
787,28.012572526931763,69,84,196,449,64,41,71,50,1
788,28.034610986709595,69,79,189,442,53,40,64,52,1
789,28.049580335617065,70,84,198,470,55,38,63,53,1
790,28.07246685028076,68,82,209,522,61,41,64,52,1
791,28.094833612442017,75,93,203,443,60,45,66,53,1
792,28.10969066619873,82,110,228,451,61,44,64,50,1
793,28.132440090179443,83,113,230,497,59,46,65,49,1
794,28.15427827835083,83,108,214,462,61,47,63,47,1
795,28.168325185775757,91,114,209,394,51,47,70,55,1
796,28.192386865615845,87,104,213,479,49,44,69,53,1
797,28.215065717697144,73,85,178,461,45,43,69,50,1
798,28.228790283203125,71,85,185,406,47,45,71,52,1
799,28.252516508102417,89,107,191,404,45,50,80,62,1
800,28.27477192878723,78,99,194,423,45,45,69,55,1
801,28.28945779800415,77,101,184,328,41,44,63,57,1
802,28.312484979629517,84,112,197,300,41,46,62,61,1
803,28.335075616836548,79,104,191,348,44,40,56,55,1
804,28.349374294281006,65,90,194,372,47,38,52,46,1
805,28.37220549583435,71,97,193,364,53,43,60,52,1
806,28.394572973251343,83,107,192,418,62,50,76,56,1
807,28.40840458869934,75,91,181,471,60,47,77,50,1
808,28.432546854019165,76,95,194,427,56,49,80,50,1
809,28.45454692840576,79,102,213,404,55,49,83,50,1
810,28.46897268295288,75,94,217,436,51,45,78,44,1
811,28.49246072769165,64,83,198,351,39,36,63,36,1
812,28.51455307006836,66,81,188,292,42,36,60,36,1
813,28.528937339782715,62,75,169,286,40,32,56,35,1
814,28.55232810974121,54,60,123,286,37,27,43,33,1
815,28.57598352432251,61,69,98,207,35,30,48,37,1
816,28.58888292312622,58,68,133,210,37,31,51,37,1
817,28.612310647964478,58,68,135,217,33,31,52,38,1
818,28.634662628173828,70,89,168,273,46,35,58,47,1
819,28.648780584335327,89,112,214,324,54,46,78,58,1
820,28.672245979309082,85,108,231,375,56,43,76,55,1
821,28.69476628303528,95,117,286,447,56,46,82,61,1
822,28.70902156829834,98,121,285,439,64,48,86,65,1
823,28.732450485229492,91,110,277,424,57,45,83,58,1
824,28.754583835601807,76,91,255,427,54,38,72,50,1
825,28.776503562927246,92,106,242,434,57,49,85,62,1
826,28.794055700302124,82,96,159,377,61,45,78,56,1
827,28.821479320526123,76,93,190,433,58,44,73,52,1
828,28.83639907836914,78,93,183,458,61,45,72,55,1
829,28.853569507598877,78,95,233,430,60,43,69,54,1
830,28.874187231063843,66,83,248,370,57,37,49,46,1
831,28.896920680999756,69,83,247,370,55,40,60,45,1
832,28.914007663726807,76,93,252,361,49,41,66,49,1
833,28.9340078830719,76,93,268,320,47,42,75,48,1
834,28.956333875656128,80,93,253,363,44,42,74,52,1
835,28.973888874053955,77,94,233,389,45,41,72,50,1
836,28.99435329437256,76,95,237,445,47,39,64,52,1
837,29.016560554504395,71,87,207,408,45,40,57,48,1
838,29.034382820129395,68,85,231,450,46,37,49,47,1
839,29.05388855934143,63,80,203,449,47,36,51,46,1
840,29.07635498046875,60,73,207,444,45,34,54,44,1
841,29.09377145767212,69,83,203,394,43,39,63,50,1
842,29.113858938217163,70,96,270,492,52,39,69,51,1
843,29.1359703540802,72,102,281,560,53,42,79,53,1
844,29.15240478515625,72,104,289,533,52,41,80,48,1
845,29.173354387283325,76,107,303,540,51,42,83,49,1
846,29.196573495864868,72,104,311,554,54,38,81,43,1
847,29.21323275566101,69,94,263,469,49,35,76,40,1
848,29.23389768600464,74,92,216,339,46,35,70,45,1
849,29.25641107559204,73,92,206,377,46,38,66,47,1
850,29.273803234100342,82,108,213,366,49,42,72,54,1
851,29.301809787750244,84,110,222,329,48,44,75,56,1
852,29.31649684906006,92,119,228,327,46,45,73,62,1
853,29.333847045898438,88,118,242,376,51,45,74,60,1
854,29.354102849960327,85,114,237,352,53,43,73,59,1
855,29.376516819000244,73,97,213,328,50,37,64,49,1
856,29.393370628356934,73,102,217,412,59,43,71,53,1
857,29.413960695266724,68,90,216,441,59,44,79,50,1
858,29.436238050460815,66,87,202,393,54,42,75,46,1
859,29.453206062316895,77,98,209,433,57,46,82,50,1
860,29.473852157592773,77,98,212,445,59,47,84,52,1
861,29.4963116645813,69,86,186,373,45,40,71,46,1
862,29.51395845413208,67,89,171,325,47,40,64,44,1
863,29.53354024887085,68,88,157,404,47,40,59,46,1
864,29.556257247924805,57,77,139,361,38,33,48,40,1
865,29.573829412460327,59,76,130,340,33,33,51,38,1
866,29.594708919525146,62,84,130,337,37,35,53,40,1
867,29.616344451904297,62,82,154,368,34,31,51,38,1
868,29.633262634277344,63,87,162,329,41,35,57,42,1
869,29.661467790603638,63,86,164,304,42,35,56,43,1
870,29.67655110359192,57,81,171,351,44,33,50,42,1
871,29.693634748458862,56,79,193,438,52,33,58,43,1
872,29.713456392288208,60,83,208,452,60,37,62,48,1
873,29.736616849899292,57,77,199,415,56,35,57,44,1
874,29.767024278640747,57,75,204,431,57,36,60,45,1
875,29.77401113510132,59,82,212,422,56,37,64,48,1
876,29.796441793441772,55,75,184,328,44,35,53,45,1
877,29.81876802444458,48,61,142,265,31,28,44,39,1
878,29.83392095565796,45,58,149,384,35,28,45,40,1
879,29.856346607208252,42,59,156,381,36,26,45,40,1
880,29.886952877044678,41,50,136,377,39,25,40,37,1
881,29.893877506256104,46,54,161,377,42,28,46,40,1
882,29.91633176803589,53,66,191,426,45,33,58,46,1
883,29.93907904624939,52,65,199,329,41,32,59,45,1
884,29.95495867729187,58,79,196,321,40,34,62,48,1
885,29.97641158103943,62,85,209,295,41,41,72,52,1
886,29.99886178970337,58,83,202,349,42,39,71,49,1
887,30.013922929763794,59,79,184,319,43,41,66,50,1
888,30.036683797836304,63,87,189,335,46,43,66,51,1
889,30.05885338783264,59,78,172,340,44,42,63,47,1
890,30.07644033432007,66,84,161,355,53,38,50,48,1
891,30.096608877182007,81,101,208,374,54,43,58,59,1
892,30.11974787712097,82,103,235,372,52,44,70,59,1
893,30.136619091033936,91,106,239,352,54,48,78,62,1
894,30.156538009643555,91,105,251,379,57,50,79,62,1
895,30.178502559661865,87,100,260,377,52,49,82,59,1
896,30.194823026657104,88,104,228,309,53,52,86,56,1
897,30.216609716415405,85,102,216,308,54,49,73,55,1
898,30.239083766937256,76,99,269,487,54,47,78,51,1
899,30.25590705871582,82,108,294,495,54,47,79,54,1
900,30.276349544525146,86,113,299,491,58,47,76,58,1
901,30.298884630203247,75,103,299,490,55,40,64,50,1
902,30.314911365509033,77,108,298,573,63,41,70,49,1
903,30.33587622642517,88,113,276,542,62,39,70,53,1
904,30.359105348587036,88,110,244,516,61,43,80,53,1
905,30.376392126083374,84,106,238,510,53,45,84,51,1
906,30.396287202835083,86,105,249,541,61,48,87,52,1
907,30.420268297195435,88,108,234,455,56,48,82,53,1
908,30.435771465301514,78,101,185,346,54,46,72,50,1
909,30.45780110359192,76,104,221,439,62,45,62,52,1
910,30.478753566741943,90,121,256,469,71,48,70,62,1
911,30.496991395950317,85,115,277,483,65,43,66,61,1
912,30.516225576400757,79,107,273,461,63,41,68,58,1
913,30.53872323036194,79,109,275,442,62,42,67,58,1
914,30.555980682373047,78,103,262,366,51,40,65,55,1
915,30.57613182067871,59,75,223,458,43,34,59,43,1
916,30.599043369293213,59,72,167,411,41,34,61,44,1
917,30.615972995758057,64,75,164,418,43,35,58,44,1
918,30.636464834213257,57,66,175,465,46,34,60,40,1
919,30.65867519378662,53,60,143,462,45,34,57,38,1
920,30.681865453720093,54,70,166,375,47,33,48,38,1
921,30.696402549743652,61,80,179,370,49,38,59,40,1
922,30.719890832901,57,81,186,390,49,38,65,41,1
923,30.741119861602783,67,90,193,342,52,38,66,46,1
924,30.756377935409546,70,102,212,317,57,39,69,48,1
925,30.77904438972473,69,98,199,277,57,39,70,49,1
926,30.8014497756958,63,89,186,257,54,35,62,48,1
927,30.81640386581421,67,96,211,303,55,35,56,49,1
928,30.838909149169922,66,96,204,312,49,36,60,47,1
929,30.861595630645752,76,100,206,322,47,40,61,53,1
930,30.876875162124634,85,103,194,326,45,43,68,56,1
931,30.89874005317688,100,120,206,367,50,50,78,66,1
932,30.921525716781616,99,116,179,308,49,51,78,65,1
933,30.936307907104492,94,109,164,291,48,49,72,63,1
934,30.95877504348755,85,100,143,278,46,45,65,58,1
935,30.981609106063843,80,97,140,257,43,43,60,55,1
936,30.9970600605011,63,81,156,233,42,36,50,46,1
937,31.018661499023438,69,87,148,262,35,35,59,51,1
938,31.04250741004944,72,91,145,251,35,35,57,50,1
939,31.056235790252686,85,108,165,257,41,37,58,56,1
940,31.080155849456787,83,108,164,260,42,37,58,57,1
941,31.10122036933899,85,107,143,260,42,35,57,58,1
942,31.116689920425415,78,99,163,289,43,33,44,53,1
943,31.138590097427368,80,107,226,295,42,34,51,53,1
944,31.16144037246704,64,87,215,292,38,32,52,47,1
945,31.17702603340149,63,87,218,309,40,30,49,43,1
946,31.198901891708374,71,103,214,312,39,34,52,51,1
947,31.221237182617188,69,101,210,276,42,34,53,50,1
948,31.23627471923828,70,98,155,280,45,37,61,55,1
949,31.259027242660522,74,100,150,292,48,38,64,56,1
950,31.281548261642456,83,110,167,280,49,40,69,61,1
951,31.296380281448364,77,105,185,263,50,39,70,56,1
952,31.31875777244568,83,116,179,245,52,42,70,60,1
953,31.34117579460144,82,114,169,239,51,39,61,56,1
954,31.356216192245483,92,129,186,321,59,41,60,58,1
955,31.378611087799072,81,118,171,314,55,38,54,52,1
956,31.401243686676025,77,111,173,338,55,34,47,45,1
957,31.416338443756104,86,108,186,475,61,39,63,49,1
958,31.439429759979248,84,107,210,528,63,40,68,49,1
959,31.46149516105652,77,91,201,482,52,40,71,47,1
960,31.476335287094116,80,90,205,496,53,43,73,50,1
961,31.499915838241577,78,85,192,476,55,43,75,51,1
962,31.52136468887329,67,85,218,385,49,40,64,47,1
963,31.53611922264099,69,91,225,352,50,41,62,52,1
964,31.558666467666626,66,91,225,362,51,38,60,51,1
965,31.58125638961792,75,106,224,343,54,38,57,56,1
966,31.596752166748047,73,110,237,373,52,37,57,54,1
967,31.618919134140015,71,104,198,331,52,35,52,50,1
968,31.64131999015808,66,95,171,295,48,34,49,44,1
969,31.66384530067444,59,92,208,297,50,31,41,40,1
970,31.678754806518555,51,76,202,297,46,30,52,34,1
971,31.709133863449097,53,69,188,253,43,29,52,35,1
972,31.724610090255737,66,86,202,329,46,35,66,42,1
973,31.73867392539978,70,89,208,364,50,34,63,43,1
974,31.762744426727295,69,83,170,344,45,35,64,42,1
975,31.791987657546997,66,92,201,362,51,34,54,40,1
976,31.799336194992065,68,97,211,439,59,40,58,41,1
977,31.82111954689026,50,76,203,390,56,32,40,33,1
978,31.84426712989807,46,69,195,338,50,34,39,33,1
979,31.858616828918457,58,80,187,328,52,35,40,40,1
980,31.882386445999146,59,75,184,340,49,39,48,39,1
981,31.903637409210205,54,67,166,247,44,33,43,37,1
982,31.918989896774292,76,94,162,226,45,40,49,53,1
983,31.940795421600342,76,97,177,252,48,41,55,54,1
984,31.96371054649353,72,97,190,280,46,41,60,51,1
985,31.978634357452393,82,106,168,309,50,40,58,57,1
986,32.001185178756714,87,111,163,308,46,41,55,61,1
987,32.02366638183594,73,92,169,335,43,35,55,51,1
988,32.038745403289795,76,95,166,358,46,34,54,53,1
989,32.06068825721741,74,93,152,347,50,34,49,54,1
990,32.08457922935486,64,87,149,319,53,34,48,47,1
991,32.09868240356445,64,93,176,400,59,34,54,45,1
992,32.12088656425476,77,102,183,436,62,43,61,51,1
993,32.14378809928894,75,100,176,435,59,42,59,51,1
994,32.1586651802063,79,96,175,443,56,43,66,53,1
995,32.18117094039917,77,89,172,430,53,40,63,52,1
996,32.203715562820435,73,81,155,404,56,40,59,53,1
997,32.21867346763611,66,81,161,391,54,34,53,51,1
998,32.241544246673584,70,85,170,372,56,35,56,51,1
999,32.263691902160645,67,89,175,356,58,35,47,48,1
1000,32.28039193153381,67,91,204,513,67,38,59,51,1
1001,32.3015034198761,66,91,209,476,60,37,58,49,1
1002,32.32392978668213,64,87,193,449,58,38,55,47,1
1003,32.33864998817444,61,87,220,468,62,38,54,44,1
1004,32.361894607543945,63,85,218,484,63,39,59,47,1
1005,32.38483810424805,59,78,188,374,54,36,46,43,1
1006,32.398762941360474,61,75,204,390,51,36,52,42,1
1007,32.42123198509216,58,67,211,382,49,37,59,40,1
1008,32.44371700286865,55,59,171,348,42,37,61,41,1
1009,32.458606243133545,55,58,169,350,42,36,62,43,1
1010,32.48117756843567,65,71,185,333,42,42,66,46,1
1011,32.503681898117065,73,83,175,329,51,46,69,52,1
1012,32.51864814758301,70,83,178,382,52,44,64,50,1
1013,32.54139518737793,75,86,203,435,55,48,73,52,1
1014,32.56369137763977,72,86,208,418,52,46,71,49,1
1015,32.58614420890808,74,91,205,416,49,42,71,52,1
1016,32.601136922836304,63,80,203,426,45,37,66,46,1
1017,32.62394618988037,71,91,206,385,42,39,67,50,1
1018,32.6463680267334,70,97,212,344,46,37,55,52,1
1019,32.6616575717926,71,100,220,347,46,38,54,52,1
1020,32.68364095687866,66,91,217,307,47,39,53,49,1
1021,32.71439528465271,68,94,201,275,43,40,54,50,1
1022,32.721094369888306,60,85,191,293,47,37,47,45,1
1023,32.743553161621094,56,74,175,301,42,33,52,41,1
1024,32.766331911087036,58,68,165,329,47,35,57,39,1
1025,32.78138613700867,62,77,169,341,48,40,59,46,1
1026,32.8036208152771,63,79,190,365,49,40,58,46,1
1027,32.82626557350159,63,80,194,357,51,41,60,46,1
1028,32.84163284301758,62,79,186,346,50,40,55,46,1
1029,32.86383533477783,61,81,189,358,51,40,52,46,1
1030,32.88725709915161,53,73,181,391,53,35,50,37,1
1031,32.90124154090881,50,65,170,383,49,33,48,40,1
1032,32.92360711097717,57,68,164,409,49,33,50,45,1
1033,32.94573354721069,60,78,183,402,52,34,50,46,1
1034,32.96115779876709,64,83,197,360,48,35,49,48,1
1035,32.98400640487671,63,79,202,323,44,36,49,47,1
1036,33.006449460983276,66,81,205,311,45,37,48,47,1
1037,33.02075219154358,63,78,225,298,41,37,52,46,1
1038,33.044126749038696,61,72,194,358,38,37,56,44,1
1039,33.06641864776611,56,67,184,382,39,33,55,44,1
1040,33.08159875869751,58,74,228,395,50,33,55,48,1
1041,33.10366201400757,57,73,220,441,51,36,62,47,1
1042,33.1266405582428,58,83,220,439,53,35,59,47,1
1043,33.140626430511475,58,85,234,441,58,35,56,46,1
1044,33.16369152069092,57,83,222,452,56,35,58,45,1
1045,33.18614912033081,64,85,181,442,48,39,62,45,1
1046,33.201746702194214,75,97,179,402,50,40,61,50,1
1047,33.2237184047699,71,91,174,378,48,40,59,48,1
1048,33.24591946601868,68,84,182,343,45,38,61,47,1
1049,33.26080560684204,74,90,193,362,49,41,62,49,1
1050,33.28312063217163,67,81,193,414,52,35,57,46,1
1051,33.306570291519165,64,76,203,430,50,37,61,44,1
1052,33.3293776512146,66,74,179,428,53,38,62,46,1
1053,33.3438446521759,66,74,160,400,50,38,58,45,1
1054,33.36606216430664,60,69,184,385,46,37,59,44,1
1055,33.381070375442505,70,82,177,321,44,39,64,45,1
1056,33.40361571311951,61,73,170,289,45,34,55,41,1
1057,33.426013708114624,67,81,187,367,54,39,70,48,1
1058,33.441256046295166,67,86,225,439,58,39,72,48,1
1059,33.46363091468811,67,89,219,439,58,36,68,47,1
1060,33.48614001274109,61,80,228,474,58,38,69,47,1
1061,33.50134587287903,65,87,225,509,58,38,71,49,1
1062,33.523712158203125,58,77,214,453,45,31,55,41,1
1063,33.547120094299316,64,74,175,385,42,37,57,46,1
1064,33.569384813308716,67,73,156,420,50,42,64,47,1
1065,33.5842661857605,73,81,174,511,65,44,71,51,1
1066,33.6060950756073,67,73,182,496,63,43,70,46,1
1067,33.6293249130249,72,78,184,514,64,47,76,51,1
1068,33.643627405166626,68,75,174,557,66,42,72,47,1
1069,33.667155265808105,62,68,171,571,65,38,64,45,1
1070,33.68960523605347,53,55,148,447,47,34,49,38,1
1071,33.70367217063904,57,63,150,501,51,35,54,41,1
1072,33.72610425949097,49,56,146,495,50,29,46,33,1
1073,33.74932408332825,50,58,163,444,46,29,52,34,1
1074,33.76359558105469,58,66,193,434,41,33,71,38,1
1075,33.78605365753174,55,66,198,465,41,31,76,38,1
1076,33.80958437919617,50,61,217,436,38,30,73,35,1
1077,33.82358503341675,53,67,223,437,42,35,76,38,1
1078,33.84632730484009,53,71,233,464,43,35,73,38,1
1079,33.86940145492554,49,67,207,425,43,32,61,36,1
1080,33.88357853889465,60,85,213,388,44,36,58,40,1
1081,33.906487226486206,66,92,210,416,49,37,65,44,1
1082,33.92948532104492,62,84,203,410,47,32,60,40,1
1083,33.94370245933533,62,84,181,382,48,31,60,40,1
1084,33.96624445915222,64,87,184,387,48,35,60,40,1
1085,33.989211559295654,55,72,159,386,45,34,56,37,1
1086,34.004069566726685,57,74,140,327,49,37,52,39,1
1087,34.02658677101135,71,94,141,349,53,45,65,49,1
1088,34.05684423446655,71,92,136,342,51,47,65,48,1
1089,34.06375312805176,68,91,141,324,53,45,62,48,1
1090,34.08674907684326,77,100,142,323,55,46,66,51,1
1091,34.10858464241028,73,98,165,335,50,42,66,48,1
1092,34.12372374534607,61,83,191,377,45,35,55,40,1
1093,34.146785736083984,73,104,218,407,50,34,56,45,1
1094,34.16921639442444,74,105,213,400,55,34,55,48,1
1095,34.18362903594971,72,98,217,419,55,32,54,48,1
1096,34.2060706615448,75,99,199,403,55,36,57,50,1
1097,34.22873139381409,74,97,172,331,55,35,55,50,1
1098,34.243645668029785,69,88,161,300,59,38,58,48,1
1099,34.266185998916626,76,97,185,341,62,42,61,50,1
1100,34.28884482383728,73,97,185,333,60,44,59,47,1
1101,34.30360007286072,70,95,193,314,57,41,50,46,1
1102,34.326645612716675,73,100,236,337,58,43,56,47,1
1103,34.34861135482788,72,94,267,499,59,45,64,49,1
1104,34.37334203720093,67,88,265,514,48,44,63,47,1
1105,34.38603615760803,73,97,300,556,54,44,73,51,1
1106,34.40856742858887,73,97,293,548,55,45,74,51,1
1107,34.42353677749634,75,97,284,565,58,45,73,52,1
1108,34.45450520515442,71,94,249,452,50,42,68,50,1
1109,34.46865367889404,63,85,236,388,47,39,69,48,1
1110,34.49186682701111,60,78,187,348,41,37,59,46,1
1111,34.506019592285156,71,88,186,368,40,41,65,53,1
1112,34.52915120124817,68,85,159,335,39,38,60,51,1
1113,34.55236601829529,74,94,168,331,40,40,63,53,1
1114,34.574458599090576,80,96,169,351,43,42,63,55,1
1115,34.588688135147095,75,92,166,354,47,41,63,55,1
1116,34.612080097198486,67,81,175,346,48,38,56,48,1
1117,34.62607002258301,70,81,170,369,47,39,64,48,1
1118,34.65690755844116,65,69,206,459,48,38,62,45,1
1119,34.6719753742218,68,73,207,483,57,38,65,44,1
1120,34.685577630996704,75,77,226,493,60,43,72,46,1
1121,34.70876455307007,74,73,246,517,58,42,73,43,1
1122,34.73196887969971,77,79,266,555,62,43,76,45,1
1123,34.74634337425232,73,80,239,478,65,40,72,45,1
1124,34.768707513809204,67,77,240,455,58,39,67,43,1
1125,34.79185461997986,66,82,223,441,52,34,60,43,1
1126,34.80602407455444,73,98,210,405,53,36,62,51,1
1127,34.82859945297241,69,92,178,312,49,36,56,49,1
1128,34.85193347930908,69,89,169,282,44,38,56,49,1
1129,34.865992069244385,78,100,201,410,53,41,68,54,1
1130,34.88877749443054,70,95,240,425,58,39,68,49,1
1131,34.911895751953125,64,84,229,417,58,39,65,43,1
1132,34.92597556114197,64,85,234,451,57,37,64,42,1
1133,34.948938608169556,70,95,242,477,58,39,69,48,1
1134,34.971914529800415,68,92,222,400,55,37,60,45,1
1135,34.986011266708374,79,99,189,372,47,43,63,53,1
1136,35.00874853134155,78,96,188,383,48,42,63,52,1
1137,35.03212022781372,77,100,233,375,50,41,57,52,1
1138,35.04566287994385,74,98,249,367,52,38,51,46,1
1139,35.06813192367554,71,94,235,379,48,37,52,46,1
1140,35.09192204475403,61,86,242,387,49,32,46,38,1
1141,35.10631489753723,62,89,248,407,53,36,49,40,1
1142,35.12863898277283,67,89,217,397,50,39,60,46,1
1143,35.1517276763916,80,96,202,394,52,42,64,50,1
1144,35.166149616241455,77,93,204,341,47,39,62,48,1
1145,35.18881344795227,79,93,181,325,54,40,67,51,1
1146,35.211697816848755,84,103,192,301,52,42,70,53,1
1147,35.22628116607666,84,105,178,297,53,44,68,50,1
1148,35.2480833530426,72,98,176,396,53,42,66,48,1
1149,35.271299600601196,71,96,179,411,54,42,63,48,1
1150,35.28564715385437,70,99,204,417,49,43,62,46,1
1151,35.30796003341675,63,90,205,444,51,40,59,45,1
1152,35.3322229385376,54,80,213,441,50,35,52,43,1
1153,35.34637975692749,50,74,216,387,43,34,55,43,1
1154,35.368247270584106,51,78,223,390,43,36,58,44,1
1155,35.3912456035614,43,67,209,400,40,33,52,41,1
1156,35.41520714759827,52,78,214,379,33,35,52,43,1
1157,35.42854166030884,66,97,239,396,34,39,57,48,1
1158,35.45167374610901,72,103,235,353,38,39,60,47,1
1159,35.47379946708679,91,126,284,389,47,46,67,56,1
1160,35.48886680603027,92,127,289,386,55,46,67,56,1
1161,35.51134419441223,87,119,292,416,57,43,63,51,1
1162,35.53365612030029,78,109,289,425,60,40,63,45,1
1163,35.54903841018677,77,106,281,434,61,41,58,45,1
1164,35.571624994277954,52,72,239,382,55,32,47,30,1
1165,35.59425973892212,63,84,235,376,53,37,52,33,1
1166,35.6085638999939,63,79,215,350,50,36,59,34,1
1167,35.631927251815796,64,75,179,296,46,36,54,37,1
1168,35.65420699119568,63,72,186,296,42,33,53,38,1
1169,35.66848921775818,77,89,195,376,47,39,64,44,1
1170,35.69169044494629,86,97,197,371,41,40,71,51,1
1171,35.71464800834656,86,103,235,380,49,41,66,53,1
1172,35.728559494018555,89,104,233,386,50,40,69,56,1
1173,35.751731395721436,87,106,230,400,55,40,67,53,1
1174,35.7743194103241,77,92,212,352,51,35,59,50,1
1175,35.796773195266724,59,78,222,339,53,31,51,42,1
1176,35.81184458732605,63,74,178,325,48,32,52,44,1
1177,35.83443546295166,70,81,179,351,45,34,56,45,1
1178,35.84854316711426,71,81,179,364,45,35,55,48,1
1179,35.87172603607178,71,81,159,347,45,33,56,47,1
1180,35.89423131942749,74,82,141,352,45,32,60,49,1
1181,35.909483432769775,72,84,143,347,43,33,65,49,1
1182,35.93251061439514,58,83,190,370,48,31,60,43,1
1183,35.954270124435425,68,90,234,373,49,37,69,50,1
1184,35.968809366226196,73,96,246,381,50,40,78,53,1
1185,35.991700172424316,71,98,253,402,55,43,74,53,1
1186,36.01437020301819,73,96,256,419,56,41,70,50,1
1187,36.028393268585205,75,91,231,407,53,43,68,52,1
1188,36.051212787628174,67,82,230,427,47,39,65,46,1
1189,36.074631452560425,63,84,234,414,46,43,61,44,1
1190,36.08854079246521,67,92,257,512,47,43,64,42,1
1191,36.111865282058716,71,101,264,510,52,42,65,47,1
1192,36.13442039489746,86,121,259,499,51,44,74,54,1
1193,36.148571252822876,90,128,233,465,54,45,74,54,1
1194,36.17164993286133,92,126,246,528,56,40,73,53,1
1195,36.19423961639404,89,117,222,404,47,37,71,51,1
1196,36.207947731018066,98,130,221,367,57,43,74,57,1
1197,36.23202729225159,89,118,237,389,59,41,68,53,1
1198,36.254146337509155,86,111,243,461,60,43,77,53,1
1199,36.26853346824646,94,123,237,412,60,46,86,58,1
1200,36.29199767112732,93,120,227,416,64,48,87,59,1
1201,36.314178705215454,79,95,210,443,50,43,86,52,1
1202,36.33675932884216,74,86,199,441,48,42,85,49,1
1203,36.35223913192749,73,86,190,347,45,39,76,49,1
1204,36.374274253845215,59,64,160,323,38,32,61,41,1
1205,36.397019386291504,57,62,171,320,36,31,57,40,1
1206,36.41174864768982,59,72,193,303,37,38,66,40,1
1207,36.43409037590027,61,80,197,249,38,37,68,41,1
1208,36.45688605308533,59,77,219,393,48,37,68,41,1
1209,36.471985816955566,57,76,246,427,52,38,73,43,1
1210,36.494126081466675,63,84,247,430,52,39,76,45,1
1211,36.516676902770996,81,102,242,445,58,47,87,54,1
1212,36.531126260757446,95,121,278,520,67,55,96,61,1
1213,36.55460166931152,104,125,285,465,62,60,103,66,1
1214,36.57702898979187,105,129,261,436,61,60,100,67,1
1215,36.592270851135254,103,126,252,466,61,58,96,65,1
1216,36.613659381866455,89,110,238,482,61,50,76,58,1
1217,36.6370747089386,73,84,207,442,52,40,63,49,1
1218,36.65132522583008,64,80,185,502,51,35,55,43,1
1219,36.6737322807312,77,97,246,539,55,41,66,49,1
1220,36.6968994140625,77,92,249,519,52,42,68,50,1
1221,36.711429595947266,86,109,278,516,51,43,73,54,1
1222,36.733741760253906,94,126,306,566,60,50,84,60,1
1223,36.75626850128174,93,128,308,527,61,49,82,60,1
1224,36.77104592323303,80,111,264,476,59,43,73,51,1
1225,36.794734954833984,76,111,267,495,60,41,72,50,1
1226,36.816728353500366,62,96,242,478,56,39,70,44,1
1227,36.83101415634155,49,73,219,422,46,31,57,37,1
1228,36.85408663749695,53,74,197,465,54,33,55,39,1
1229,36.876824617385864,55,76,198,485,58,35,56,42,1
1230,36.89090609550476,57,80,225,514,63,38,57,43,1
1231,36.914751052856445,61,84,250,511,61,38,58,46,1
1232,36.9365918636322,65,87,232,559,65,43,68,48,1
1233,36.9509494304657,63,82,230,513,58,40,67,47,1
1234,36.97455048561096,61,80,229,505,51,37,64,44,1
1235,36.99666929244995,62,81,215,457,46,38,68,47,1
1236,37.012054204940796,63,75,179,463,55,41,73,45,1
1237,37.03372573852539,55,68,158,349,48,34,59,38,1
1238,37.056097984313965,60,70,170,299,47,36,61,42,1
1239,37.07204818725586,72,90,223,455,57,45,76,49,1
1240,37.09417152404785,74,90,261,485,60,45,78,47,1
1241,37.116737842559814,75,94,260,481,53,46,77,52,1
1242,37.130905866622925,78,96,274,535,56,50,83,54,1
1243,37.154430866241455,71,95,264,530,61,48,79,50,1
1244,37.17692518234253,68,90,241,411,58,41,68,49,1
1245,37.191102504730225,81,111,204,416,61,48,75,60,1
1246,37.21423935890198,82,113,221,433,62,47,75,57,1
1247,37.23706293106079,85,117,209,381,61,44,69,56,1
1248,37.251423597335815,86,118,209,408,56,46,72,58,1
1249,37.27410411834717,82,114,192,386,50,45,71,55,1
1250,37.2967963218689,74,100,180,356,42,38,58,45,1
1251,37.319350242614746,66,91,153,343,40,35,48,41,1
1252,37.334134578704834,57,79,150,327,35,33,46,39,1
1253,37.35661435127258,55,77,161,316,38,32,44,38,1
1254,37.37911105155945,59,77,164,371,40,32,47,40,1
1255,37.39430475234985,54,78,176,335,42,30,44,40,1
1256,37.424224853515625,64,86,187,334,41,30,51,44,1
1257,37.43928623199463,67,91,184,327,43,31,50,44,1
1258,37.45423078536987,68,94,187,361,45,33,53,46,1
1259,37.47659349441528,61,86,178,385,47,34,52,42,1
1260,37.49914789199829,58,74,152,393,47,34,54,39,1
1261,37.51404023170471,52,72,172,429,52,33,50,40,1
1262,37.53661751747131,68,79,232,574,64,44,84,51,1
1263,37.55916738510132,71,82,231,587,64,43,88,52,1
1264,37.57456350326538,76,88,232,560,63,43,87,53,1
1265,37.5962495803833,83,100,239,598,68,46,91,58,1
1266,37.61901044845581,84,107,218,570,63,46,91,60,1
1267,37.63435387611389,72,103,192,433,52,36,63,52,1
1268,37.65719532966614,70,108,207,435,51,36,57,52,1
1269,37.67911338806152,66,106,221,446,52,34,54,51,1
1270,37.69337701797485,69,114,213,407,49,34,51,49,1
1271,37.716968297958374,87,125,231,421,59,39,69,60,1
1272,37.739190101623535,90,128,221,471,65,44,76,63,1
1273,37.75334072113037,95,128,204,448,63,47,80,64,1
1274,37.77678632736206,94,125,181,423,61,46,81,64,1
1275,37.79926514625549,88,109,199,431,57,44,82,61,1
1276,37.81359529495239,68,94,195,431,55,41,68,49,1
1277,37.837650299072266,71,96,176,377,47,37,61,49,1
1278,37.86000680923462,85,107,176,347,47,48,76,56,1
1279,37.87332057952881,126,169,231,449,57,63,91,81,1
1280,37.89714193344116,126,170,212,435,60,63,90,82,1
1281,37.92076373100281,130,174,230,475,61,65,92,85,1
1282,37.93281078338623,131,178,262,500,69,66,90,85,1
1283,37.956892013549805,120,170,289,540,73,56,77,79,1
1284,37.97967505455017,79,112,255,468,65,40,57,55,1
1285,37.99342942237854,81,113,274,531,66,39,60,58,1
1286,38.01612186431885,79,109,252,460,57,36,59,59,1
1287,38.038668155670166,69,91,230,440,47,32,59,53,1
1288,38.05313849449158,68,94,247,415,45,34,62,53,1
1289,38.076645851135254,67,92,252,414,45,34,62,51,1
1290,38.09928369522095,66,92,255,329,41,33,61,48,1
1291,38.11334419250488,63,91,276,368,45,37,67,43,1
1292,38.13657331466675,66,97,277,402,48,42,76,46,1
1293,38.15902066230774,76,110,274,427,51,46,79,49,1
1294,38.17362856864929,79,116,293,481,53,47,83,50,1
1295,38.19661283493042,96,137,282,476,56,52,89,61,1
1296,38.2192497253418,105,141,252,448,59,51,84,67,1
1297,38.23341131210327,104,137,240,415,57,47,79,67,1
1298,38.256078004837036,96,121,194,378,58,41,69,63,1
1299,38.27936148643494,97,118,147,313,57,43,71,65,1
1300,38.30158829689026,79,92,178,351,54,37,64,53,1
1301,38.31659817695618,60,70,180,362,48,33,62,47,1
1302,38.33916258811951,60,74,189,369,46,36,60,47,1
1303,38.36195254325867,55,72,190,333,37,36,59,47,1
1304,38.37650918960571,51,70,204,351,35,33,58,47,1
1305,38.39921569824219,55,73,172,368,35,36,54,47,1
1306,38.421513080596924,56,74,185,377,35,35,54,43,1
1307,38.43690085411072,62,77,167,362,37,36,61,43,1
1308,38.45919132232666,65,80,161,372,39,37,63,42,1
1309,38.48171901702881,81,97,206,401,46,46,69,47,1
1310,38.49684691429138,77,95,209,339,45,42,66,46,1
1311,38.519068241119385,82,103,197,322,44,44,69,53,1
1312,38.54151678085327,87,106,207,360,45,47,64,55,1
1313,38.55671048164368,92,110,200,356,47,48,66,59,1
1314,38.57933831214905,82,95,192,361,45,42,60,56,1
1315,38.60116410255432,101,122,191,388,48,50,74,69,1
1316,38.61610007286072,104,120,191,412,51,51,73,67,1
1317,38.639060735702515,99,119,207,413,54,48,73,70,1
1318,38.66189122200012,97,118,218,416,51,47,74,69,1
1319,38.6759819984436,92,117,183,349,48,45,71,66,1
1320,38.699219703674316,71,87,188,355,46,39,61,52,1
1321,38.72146773338318,71,88,207,334,49,42,64,55,1
1322,38.74336791038513,74,89,208,339,51,44,64,53,1
1323,38.76011514663696,77,88,217,405,58,47,70,51,1
1324,38.78134298324585,78,90,211,405,58,45,68,51,1
1325,38.80366635322571,76,92,202,390,60,43,61,50,1
1326,38.8203399181366,76,88,195,389,58,42,62,46,1
1327,38.842952251434326,75,98,215,369,54,40,63,45,1
1328,38.86345887184143,80,113,215,329,53,40,53,52,1
1329,38.88110542297363,87,121,221,331,54,44,62,58,1
1330,38.900824546813965,93,128,239,350,53,46,71,61,1
1331,38.9233021736145,92,129,291,419,52,44,71,63,1
1332,38.939257860183716,91,121,260,395,55,42,71,63,1
1333,38.96065640449524,86,105,242,382,52,38,69,59,1
1334,38.983296632766724,86,99,267,408,50,38,73,57,1
1335,39.00019288063049,81,90,253,393,47,35,67,55,1
1336,39.020883083343506,79,90,201,443,52,34,69,52,1
1337,39.04350686073303,75,87,197,460,47,34,67,48,1
1338,39.060380935668945,75,97,205,444,45,36,67,49,1
1339,39.0809805393219,66,92,180,440,48,32,53,44,1
1340,39.10339903831482,71,100,182,489,57,36,61,47,1
1341,39.121002435684204,65,94,165,384,51,33,53,44,1
1342,39.14092993736267,62,88,169,370,52,32,50,42,1
1343,39.16285157203674,53,74,158,364,51,30,46,37,1
1344,39.18105363845825,55,75,134,341,47,32,47,40,1
1345,39.20078492164612,44,60,126,260,39,29,37,33,1
1346,39.2232129573822,44,62,140,267,37,30,36,35,1
1347,39.241758584976196,46,63,149,292,34,32,43,37,1
1348,39.26119327545166,54,67,152,311,31,36,48,40,1
1349,39.283366680145264,61,70,155,332,32,36,52,43,1
1350,39.300434827804565,66,79,153,320,29,36,53,46,1
1351,39.321661710739136,70,84,171,464,34,38,60,47,1
1352,39.343738079071045,74,88,178,452,37,41,66,52,1
1353,39.36025428771973,76,96,201,454,44,42,71,53,1
1354,39.380743980407715,84,119,277,536,62,47,81,60,1
1355,39.40376615524292,97,136,300,552,67,51,90,67,1
1356,39.4212212562561,99,137,301,468,70,53,91,69,1
1357,39.44088912010193,103,144,310,520,75,53,91,68,1
1358,39.463656425476074,103,139,294,508,75,53,88,66,1
1359,39.48213863372803,95,120,219,397,63,48,80,60,1
1360,39.50103545188904,87,108,207,416,62,47,74,56,1
1361,39.52328705787659,109,133,184,395,60,50,82,67,1
1362,39.540099143981934,110,133,167,367,55,51,81,70,1
1363,39.56282949447632,112,143,205,377,56,52,80,74,1
1364,39.583558320999146,110,139,228,461,56,51,80,71,1
1365,39.60031795501709,110,139,219,449,51,51,88,71,1
1366,39.620811223983765,86,113,219,420,51,46,74,59,1
1367,39.64275598526001,79,107,236,420,54,44,68,57,1
1368,39.66022515296936,80,99,203,400,49,46,75,56,1
1369,39.68108868598938,91,115,195,464,55,48,78,60,1
1370,39.70349621772766,84,111,209,465,57,45,63,57,1
1371,39.72038912773132,86,108,210,478,55,46,72,57,1
1372,39.74071669578552,82,101,188,476,49,43,72,53,1
1373,39.76513075828552,75,98,222,505,51,39,64,47,1
1374,39.7802472114563,72,93,216,372,54,37,62,50,1
1375,39.80121564865112,70,86,205,364,53,37,66,47,1
1376,39.823540687561035,68,83,201,375,52,35,59,43,1
1377,39.84029030799866,70,84,192,421,59,35,58,42,1
1378,39.860759258270264,66,75,160,411,55,32,60,44,1
1379,39.88341808319092,59,62,144,392,45,32,54,42,1
1380,39.90087532997131,77,81,143,508,43,39,65,56,1
1381,39.92085123062134,77,82,152,525,45,39,66,61,1
1382,39.943135023117065,75,82,148,459,38,38,66,61,1
1383,39.960543394088745,76,84,141,456,39,38,64,60,1
1384,39.9823477268219,72,80,150,457,43,37,65,56,1
1385,40.00322222709656,57,63,152,317,42,28,56,42,1
1386,40.022255659103394,62,71,146,246,39,29,58,42,1
1387,40.04083037376404,68,78,143,253,40,36,64,46,1
1388,40.06353807449341,65,76,146,258,39,34,62,45,1
1389,40.0792441368103,67,84,154,279,35,36,64,47,1
1390,40.10267949104309,64,81,130,255,36,36,59,47,1
1391,40.12574577331543,59,76,145,263,36,37,58,40,1
1392,40.14025807380676,55,73,161,290,34,32,54,36,1
1393,40.16078567504883,62,75,167,283,34,35,57,40,1
1394,40.18351602554321,62,72,171,269,36,33,52,39,1
1395,40.20579648017883,64,80,187,351,38,33,52,41,1
1396,40.220701932907104,67,90,198,400,48,33,51,47,1
1397,40.24318790435791,70,92,188,393,47,35,53,47,1
1398,40.26641607284546,70,94,186,413,49,36,49,47,1
1399,40.28085112571716,70,90,175,486,52,38,55,48,1
1400,40.303394079208374,66,80,163,485,50,37,51,45,1
1401,40.32590317726135,70,76,143,460,49,40,58,43,1
1402,40.340866804122925,67,78,189,483,54,38,54,43,1
1403,40.363168716430664,67,75,195,495,55,38,63,43,1
1404,40.40220665931702,66,76,199,436,52,36,58,44,1
1405,40.40447950363159,67,78,199,415,54,36,59,48,1
1406,40.42316818237305,56,73,190,450,51,30,51,44,1
1407,40.44658899307251,67,78,159,420,52,36,59,51,1
1408,40.46057963371277,67,83,159,366,48,35,50,49,1
1409,40.48290038108826,69,87,167,357,49,39,55,52,1
1410,40.50581407546997,72,90,192,416,50,41,60,53,1
1411,40.520814418792725,73,92,198,385,48,40,58,54,1
1412,40.54344654083252,63,86,203,373,42,34,51,46,1
1413,40.565735816955566,64,82,195,403,49,34,51,46,1
1414,40.58099555969238,61,80,184,428,48,31,48,41,1
1415,40.603336811065674,56,77,218,385,47,30,42,34,1
1416,40.625635385513306,57,75,223,366,47,33,47,32,1
1417,40.64091753959656,55,73,211,361,45,32,48,35,1
1418,40.66317844390869,54,74,217,346,49,34,50,37,1
1419,40.68562841415405,53,70,223,314,49,33,48,38,1
1420,40.70257067680359,52,71,167,243,46,32,45,39,1
1421,40.72333359718323,47,70,160,266,46,31,43,39,1
1422,40.74607491493225,48,67,172,342,58,33,42,35,1
1423,40.76066970825195,41,59,173,335,49,31,43,31,1
1424,40.783384561538696,41,59,170,321,46,30,45,30,1
1425,40.805689096450806,42,61,172,312,47,32,49,32,1
1426,40.8208703994751,44,65,192,361,51,33,47,35,1
1427,40.84286618232727,50,71,189,351,42,33,53,38,1
1428,40.86530160903931,53,76,199,380,44,34,50,41,1
1429,40.8814959526062,53,77,205,389,48,34,50,43,1
1430,40.904860734939575,56,76,196,402,47,35,49,44,1
1431,40.92569875717163,72,102,211,418,57,38,53,53,1
1432,40.940333127975464,67,101,231,398,59,36,50,52,1
1433,40.9634735584259,68,97,215,364,58,37,57,50,1
1434,40.98804807662964,71,98,218,386,61,38,59,49,1
1435,41.00066328048706,72,99,232,420,61,37,62,46,1
1436,41.02317667007446,61,78,205,414,58,33,59,35,1
1437,41.04576301574707,68,85,195,403,55,33,58,38,1
1438,41.068299293518066,69,87,205,455,55,32,52,38,1
1439,41.08320474624634,64,84,204,545,59,31,55,36,1
1440,41.10568642616272,78,97,230,569,61,40,70,49,1
1441,41.12826180458069,79,98,252,568,54,42,74,49,1
1442,41.14337611198425,81,100,250,576,56,44,78,51,1
1443,41.16616702079773,86,104,242,554,54,49,83,56,1
1444,41.188307762145996,98,118,227,513,50,52,87,66,1
1445,41.203107833862305,88,111,202,452,49,45,73,58,1
1446,41.23396325111389,85,110,195,396,48,43,69,59,1
1447,41.248308420181274,77,101,201,419,46,40,68,56,1
1448,41.263147830963135,69,99,207,414,47,33,61,50,1
1449,41.286224603652954,68,91,218,411,42,33,61,46,1
1450,41.308282136917114,71,94,219,431,41,36,70,49,1
1451,41.32333183288574,79,100,237,491,40,39,74,51,1
1452,41.348435401916504,79,97,224,462,38,38,67,50,1
1453,41.368348121643066,82,96,230,443,38,39,68,49,1
1454,41.38317155838013,75,95,219,373,35,35,58,45,1
1455,41.40582799911499,70,88,228,394,36,32,52,44,1
1456,41.42816376686096,63,79,187,295,40,30,51,38,1
1457,41.443122148513794,66,87,216,331,43,33,58,43,1
1458,41.46571087837219,64,88,211,365,47,33,60,45,1
1459,41.48826789855957,61,83,215,375,51,38,66,46,1
1460,41.50316762924194,65,90,214,348,54,42,69,52,1
1461,41.52586245536804,60,87,233,400,53,41,62,51,1
1462,41.549497842788696,62,84,224,447,55,44,70,53,1
1463,41.563281297683716,74,88,232,435,51,48,78,60,1
1464,41.58696389198303,78,99,248,418,47,46,81,60,1
1465,41.608195066452026,80,96,246,457,47,46,87,56,1
1466,41.62324047088623,85,94,228,454,50,47,91,61,1
1467,41.64589786529541,85,96,210,388,46,46,89,59,1
1468,41.6684992313385,79,96,210,412,54,45,87,56,1
1469,41.682743549346924,73,84,189,425,54,44,79,53,1
1470,41.705212116241455,72,94,196,425,58,44,70,53,1
1471,41.728508949279785,76,100,221,470,58,46,73,51,1
1472,41.74337434768677,73,94,232,452,56,44,64,49,1
1473,41.76611137390137,75,96,232,429,50,46,69,51,1
1474,41.78841781616211,81,104,261,449,53,49,78,56,1
1475,41.803173542022705,79,95,259,412,47,49,78,59,1
1476,41.825613498687744,76,97,255,316,42,47,75,59,1
1477,41.84829306602478,88,117,257,393,55,53,85,69,1
1478,41.87062621116638,84,110,239,381,56,48,76,65,1
1479,41.88572669029236,84,107,204,350,57,47,74,63,1
1480,41.90825271606445,82,108,186,347,55,46,74,58,1
1481,41.92323279380798,88,114,174,352,58,49,79,62,1
1482,41.94572043418884,75,92,151,351,50,42,67,51,1
1483,41.96827268600464,74,94,162,349,50,45,69,50,1
1484,41.98332667350769,69,91,184,400,48,40,63,48,1
1485,42.00579810142517,68,87,212,399,46,37,59,47,1
1486,42.02812051773071,55,73,204,419,46,33,52,36,1
1487,42.04359483718872,65,79,207,389,48,38,64,36,1
1488,42.06520986557007,66,80,207,395,50,36,64,35,1
1489,42.0889687538147,68,81,196,361,47,36,63,39,1
1490,42.11063814163208,70,85,186,439,59,39,68,41,1
1491,42.125664949417114,73,86,196,448,63,37,68,44,1
1492,42.14854860305786,67,89,210,415,60,33,59,45,1
1493,42.171003580093384,65,91,216,421,63,32,58,49,1
1494,42.18573451042175,64,93,233,409,65,33,57,45,1
1495,42.20845890045166,77,105,213,346,59,35,58,55,1
1496,42.23068571090698,79,106,187,301,51,39,61,57,1
1497,42.24557399749756,85,108,161,301,50,43,60,59,1
1498,42.26806378364563,82,102,140,316,45,41,58,54,1
1499,42.291457414627075,85,104,113,311,44,40,61,56,1
1500,42.30560231208801,73,97,119,331,43,37,53,50,1
1501,42.3280713558197,72,94,148,376,43,35,53,46,1
1502,42.35093331336975,65,90,161,373,42,31,48,43,1
1503,42.37305688858032,72,97,187,363,40,34,53,46,1
1504,42.3882372379303,76,98,179,390,43,40,57,50,1
1505,42.41076683998108,68,83,184,417,46,38,55,44,1
1506,42.4259033203125,62,76,179,420,46,38,54,45,1
1507,42.44848585128784,77,92,178,429,44,44,67,52,1
1508,42.470224142074585,72,83,160,425,44,43,64,51,1
1509,42.48561120033264,66,79,197,437,43,41,65,46,1
1510,42.5079619884491,84,104,213,386,49,46,73,62,1
1511,42.53077435493469,90,112,216,371,51,47,75,66,1
1512,42.5457284450531,78,99,206,362,53,42,64,61,1
1513,42.56816792488098,81,106,239,368,53,44,75,63,1
1514,42.590129137039185,90,116,243,399,56,45,75,67,1
1515,42.606390953063965,78,103,232,411,52,39,69,55,1
1516,42.62814736366272,75,100,239,421,51,36,62,55,1
1517,42.65000891685486,84,109,245,454,55,42,76,62,1
1518,42.66559386253357,82,103,215,444,54,38,64,58,1
1519,42.688087463378906,76,99,187,369,49,38,61,56,1
1520,42.710864543914795,74,97,199,330,43,39,64,54,1
1521,42.72548222541809,72,92,183,300,41,39,64,50,1
1522,42.748122453689575,90,122,213,261,43,40,59,56,1
1523,42.770949602127075,94,131,233,270,48,45,65,59,1
1524,42.785292863845825,92,126,244,358,56,42,63,58,1
1525,42.80761790275574,95,130,226,368,55,42,62,59,1
1526,42.830809593200684,96,131,218,359,53,41,64,58,1
1527,42.8457510471344,68,96,209,369,51,35,54,44,1
1528,42.86815524101257,77,110,199,420,61,34,49,51,1
1529,42.89057159423828,85,113,176,361,61,40,53,57,1
1530,42.90571689605713,93,118,177,346,62,46,60,61,1
1531,42.92801594734192,98,124,177,337,64,48,61,66,1
1532,42.95084023475647,107,133,159,324,68,51,64,71,1
1533,42.965423345565796,96,110,175,244,54,49,61,65,1
1534,42.9880952835083,88,104,178,255,47,43,58,59,1
1535,43.01058650016785,74,90,186,292,47,36,51,51,1
1536,43.03309893608093,64,80,203,295,46,34,51,46,1
1537,43.047969818115234,66,78,206,360,44,34,49,42,1
1538,43.07096743583679,67,84,181,364,48,34,52,43,1
1539,43.09305548667908,67,81,175,350,48,37,59,45,1
1540,43.108104944229126,71,80,165,330,44,38,60,46,1
1541,43.130748987197876,72,81,150,392,44,39,61,46,1
1542,43.153395652770996,62,72,154,395,45,34,60,42,1
1543,43.168184995651245,70,86,180,445,46,34,66,46,1
1544,43.19072937965393,72,91,208,455,51,36,65,51,1
1545,43.213335275650024,72,97,242,588,60,38,74,54,1
1546,43.228543519973755,77,106,255,552,66,37,74,56,1
1547,43.25056052207947,72,101,244,510,62,37,73,54,1
1548,43.27307343482971,63,89,238,482,61,39,67,48,1
1549,43.288594484329224,62,86,222,542,61,38,64,45,1
1550,43.310901165008545,66,89,197,434,59,37,57,44,1
1551,43.33307886123657,62,77,177,426,51,38,55,44,1
1552,43.34811758995056,68,83,201,533,58,39,62,48,1
1553,43.370702028274536,72,86,201,526,58,38,69,52,1
1554,43.39358830451965,74,84,221,468,53,38,75,54,1
1555,43.408220052719116,66,77,208,470,52,36,71,49,1
1556,43.430668592453,65,80,219,513,55,37,74,49,1
1557,43.45315599441528,69,87,218,415,47,36,71,49,1
1558,43.46799659729004,67,85,202,396,42,33,63,45,1
1559,43.49052953720093,63,88,177,394,44,30,55,38,1
1560,43.51266360282898,64,85,188,366,45,33,54,40,1
1561,43.52821159362793,69,87,188,360,49,30,50,37,1
1562,43.55055069923401,70,81,159,376,50,33,57,38,1
1563,43.572986364364624,68,78,165,389,50,34,63,39,1
1564,43.587703227996826,67,74,155,407,51,36,62,42,1
1565,43.61050891876221,66,73,141,406,48,34,61,39,1
1566,43.633285999298096,64,80,165,404,50,34,60,38,1
1567,43.64818048477173,58,76,185,394,51,32,50,34,1
1568,43.67068433761597,63,78,177,398,52,33,44,38,1
1569,43.69337439537048,61,76,195,364,50,31,42,37,1
1570,43.70804691314697,65,79,205,355,50,33,48,40,1
1571,43.73051047325134,73,82,181,301,42,36,55,48,1
1572,43.75301241874695,76,88,192,292,44,39,63,49,1
1573,43.7681884765625,78,94,196,271,46,41,70,50,1
1574,43.790441036224365,83,103,193,274,45,41,71,51,1
1575,43.813010692596436,86,110,192,253,48,45,71,56,1
1576,43.828169107437134,75,101,187,335,49,43,65,50,1
1577,43.85063314437866,96,136,211,323,51,50,66,62,1
1578,43.873018741607666,94,133,210,315,52,49,57,60,1
1579,43.889686822891235,91,129,201,335,53,49,57,60,1
1580,43.910841941833496,95,131,192,351,52,47,56,62,1
1581,43.932985067367554,107,145,216,356,56,53,67,68,1
1582,43.95659828186035,85,112,181,353,50,43,61,56,1
1583,43.97054195404053,84,118,201,361,52,43,63,60,1
1584,43.993412017822266,85,123,224,402,54,41,61,60,1
1585,44.01646280288696,79,119,229,449,52,40,65,55,1
1586,44.03018236160278,65,108,220,398,46,31,54,49,1
1587,44.052467584609985,63,102,210,417,49,33,50,49,1
1588,44.076592445373535,60,92,189,416,44,29,49,43,1
1589,44.09059429168701,66,97,188,401,47,36,58,46,1
1590,44.1130576133728,69,95,219,459,55,36,64,46,1
1591,44.13629651069641,75,94,222,469,60,36,65,50,1
1592,44.15175700187683,98,119,232,453,64,50,83,64,1
1593,44.17305874824524,100,123,233,465,67,53,84,68,1
1594,44.19633626937866,100,118,245,446,66,51,79,67,1
1595,44.210505962371826,95,115,216,318,61,51,71,64,1
1596,44.233537435531616,93,114,206,305,58,54,73,64,1
1597,44.256970167160034,80,105,219,343,61,45,56,54,1
1598,44.27138662338257,80,112,255,378,65,44,57,51,1
1599,44.29297590255737,82,118,237,374,66,45,66,55,1
1600,44.31644678115845,83,117,230,379,67,46,67,58,1
1601,44.33062171936035,108,142,229,429,68,52,78,71,1
1602,44.352442502975464,109,138,207,380,59,51,80,73,1
1603,44.3767991065979,106,129,192,327,55,49,79,72,1
1604,44.398874282836914,112,141,224,339,60,51,75,74,1
1605,44.412999629974365,119,151,223,321,56,49,73,76,1
1606,44.43630886077881,117,145,220,312,57,52,83,75,1
1607,44.45060682296753,114,148,240,344,63,53,83,71,1
1608,44.47311067581177,118,154,222,339,62,55,85,73,1
1609,44.496334075927734,109,140,177,309,54,52,83,68,1
1610,44.511170864105225,110,141,208,364,61,57,89,68,1
1611,44.533501863479614,91,128,235,385,66,51,71,55,1
1612,44.556241273880005,84,114,216,371,58,47,69,54,1
1613,44.57042193412781,81,108,214,387,55,45,66,52,1
1614,44.59296226501465,82,103,240,479,56,47,69,53,1
1615,44.616859912872314,72,90,218,454,55,39,60,51,1
1616,44.6305775642395,64,76,184,390,43,35,55,45,1
1617,44.65463137626648,66,78,200,463,49,38,61,48,1
1618,44.67688846588135,60,73,211,513,52,38,59,47,1
1619,44.69060254096985,52,71,175,428,54,35,53,44,1
1620,44.71261978149414,57,74,175,426,56,37,54,42,1
1621,44.735647201538086,74,91,191,437,59,46,66,57,1
1622,44.75090146064758,79,105,200,407,57,42,61,57,1
1623,44.77314758300781,83,107,189,328,55,43,63,61,1
1624,44.79625749588013,86,107,194,332,53,45,67,63,1
1625,44.81102466583252,86,114,231,331,48,46,70,63,1
1626,44.833842039108276,76,106,232,358,47,37,65,52,1
1627,44.85629415512085,74,101,245,336,49,40,63,50,1
1628,44.878721952438354,72,103,249,395,58,43,64,48,1
1629,44.894038915634155,73,112,283,424,56,43,64,48,1
1630,44.916643381118774,70,105,251,423,53,41,60,45,1
1631,44.93877720832825,65,98,233,380,48,41,54,43,1
1632,44.952964067459106,64,99,202,351,48,42,58,46,1
1633,44.97622275352478,69,103,200,302,38,39,58,47,1
1634,44.998863697052,65,90,141,273,41,42,56,48,1
1635,45.0132417678833,77,103,157,270,48,46,61,54,1
1636,45.03583025932312,83,112,195,298,55,46,61,57,1
1637,45.05820631980896,81,109,189,290,55,45,60,56,1
1638,45.073322772979736,78,105,180,277,55,46,57,53,1
1639,45.096492767333984,77,108,192,274,54,43,55,50,1
1640,45.11874580383301,65,91,178,268,49,38,50,43,1
1641,45.13296627998352,60,84,157,334,48,38,50,40,1
1642,45.156131744384766,60,79,152,339,47,35,46,39,1
1643,45.17872595787048,59,77,155,343,45,32,49,40,1
1644,45.19300389289856,59,73,146,342,45,29,49,38,1
1645,45.21564340591431,59,75,197,380,51,30,47,38,1
1646,45.23882818222046,59,72,197,343,48,29,48,39,1
1647,45.25317049026489,61,75,199,352,45,31,51,41,1
1648,45.27628040313721,72,84,214,402,54,37,61,45,1
1649,45.29792332649231,70,82,220,401,56,39,61,45,1
1650,45.31288003921509,70,80,203,374,50,37,60,45,1
1651,45.336278200149536,76,87,204,346,50,41,63,50,1
1652,45.359103202819824,74,87,205,357,51,39,59,49,1
1653,45.37292122840881,66,79,203,338,44,36,50,48,1
1654,45.39683794975281,68,79,190,323,40,36,51,49,1
1655,45.41897988319397,67,79,192,362,41,36,55,51,1
1656,45.432899951934814,59,74,215,370,43,33,60,45,1
1657,45.4556143283844,59,71,209,380,41,35,62,43,1
1658,45.47890877723694,60,69,229,426,41,33,65,40,1
1659,45.49253964424133,64,76,264,475,42,34,76,43,1
1660,45.51639127731323,66,79,325,553,47,39,83,43,1
1661,45.538681745529175,72,82,304,547,46,41,85,47,1
1662,45.55299353599548,71,81,304,521,49,40,84,48,1
1663,45.57617950439453,68,79,281,479,49,41,83,50,1
1664,45.598687410354614,67,78,264,437,50,44,77,47,1
1665,45.613247871398926,64,73,181,321,42,39,65,45,1
1666,45.63649320602417,64,68,188,314,46,38,62,42,1
1667,45.65882349014282,63,67,192,314,49,40,65,42,1
1668,45.672921657562256,63,70,215,366,51,36,59,38,1
1669,45.696120262145996,64,74,215,408,59,36,65,41,1
1670,45.71869611740112,70,74,208,447,62,39,71,43,1
1671,45.73299980163574,67,75,199,450,56,39,65,44,1
1672,45.75553321838379,65,74,205,455,51,38,64,44,1
1673,45.779009103775024,67,76,191,399,49,38,64,45,1
1674,45.792940855026245,61,71,180,412,47,36,56,44,1
1675,45.81552600860596,57,75,170,377,49,34,50,41,1
1676,45.838863134384155,58,81,224,476,55,34,59,42,1
1677,45.86147928237915,62,83,219,475,55,36,63,41,1
1678,45.8749783039093,67,83,200,476,56,39,65,50,1
1679,45.899343729019165,76,88,205,427,52,43,71,52,1
1680,45.921520709991455,82,88,204,383,50,46,71,59,1
1681,45.9354407787323,75,76,148,294,44,41,61,55,1
1682,45.95858073234558,75,80,175,295,46,40,56,57,1
1683,45.98089098930359,72,84,193,271,47,39,59,51,1
1684,45.99548649787903,69,81,190,317,48,37,57,49,1
1685,46.02611517906189,62,78,235,391,47,34,59,42,1
1686,46.04111361503601,62,81,231,368,49,34,58,41,1
1687,46.05654001235962,58,76,217,368,46,31,56,37,1
1688,46.07869744300842,53,62,237,378,45,29,49,36,1
1689,46.10142111778259,41,58,255,455,44,24,39,33,1
1690,46.115997076034546,48,69,221,400,44,26,35,37,1
1691,46.13892602920532,62,86,247,385,44,35,55,43,1
1692,46.16135096549988,68,92,255,398,46,39,68,47,1
1693,46.17537021636963,71,98,245,432,45,41,73,49,1
1694,46.198625802993774,88,114,230,348,41,43,77,56,1
1695,46.22903347015381,89,116,217,345,42,44,77,59,1
1696,46.235554695129395,80,104,199,351,38,37,66,55,1
1697,46.25872778892517,77,104,218,386,46,35,56,56,1
1698,46.281179428100586,75,102,207,337,44,33,49,53,1
1699,46.29551839828491,57,81,191,287,42,28,45,43,1
1700,46.318907499313354,52,75,209,358,41,25,50,39,1
1701,46.34125232696533,84,129,271,416,66,43,77,58,1
1702,46.35551953315735,86,127,253,385,62,43,75,58,1
1703,46.37863755226135,85,126,253,419,63,45,77,59,1
1704,46.401304721832275,84,126,257,432,63,46,76,60,1
1705,46.41535925865173,83,127,259,386,64,47,73,58,1
1706,46.43865919113159,50,79,206,396,44,34,48,38,1
1707,46.46128702163696,65,96,240,398,46,39,62,48,1
1708,46.47627639770508,74,99,232,378,44,41,70,52,1
1709,46.49948024749756,75,99,226,377,48,43,72,53,1
1710,46.52124905586243,82,111,246,405,50,45,75,56,1
1711,46.53550624847412,83,106,230,382,51,44,75,57,1
1712,46.5589873790741,71,93,198,369,49,39,63,48,1
1713,46.58122205734253,64,91,202,367,56,38,56,43,1
1714,46.59568786621094,73,105,228,403,56,38,62,49,1
1715,46.61872696876526,67,86,198,374,51,36,57,46,1
1716,46.64113926887512,66,88,204,341,50,35,56,46,1
1717,46.655349016189575,64,83,195,412,49,37,61,46,1
1718,46.67898488044739,62,80,192,456,44,35,61,48,1
1719,46.701345443725586,49,63,172,430,38,31,53,41,1
1720,46.715850830078125,47,63,175,418,40,32,56,41,1
1721,46.73876595497131,56,67,161,404,43,34,56,44,1
1722,46.761479139328,58,69,162,336,47,33,52,44,1
1723,46.775431871414185,57,69,184,244,46,33,50,40,1
1724,46.79919981956482,60,73,175,266,48,34,51,41,1
1725,46.8210346698761,59,73,193,327,46,35,51,39,1
1726,46.84405755996704,56,73,214,386,46,38,62,34,1
1727,46.85870337486267,72,90,221,401,46,42,74,42,1
1728,46.88108253479004,77,94,197,409,47,43,76,45,1
1729,46.90399670600891,78,96,212,426,57,47,78,49,1
1730,46.918914794921875,79,102,189,467,62,45,76,52,1
1731,46.941816329956055,78,105,186,449,60,39,65,52,1
1732,46.96357560157776,63,91,183,449,55,34,50,47,1
1733,46.978883028030396,61,89,187,450,59,34,50,45,1
1734,47.00109791755676,62,87,173,412,50,33,54,43,1
1735,47.02370548248291,63,92,194,356,46,33,57,42,1
1736,47.03872108459473,65,89,193,310,49,40,64,44,1
1737,47.061131715774536,67,90,192,318,52,38,66,43,1
1738,47.08424401283264,73,101,251,379,59,41,69,48,1
1739,47.09963870048523,74,101,276,391,61,43,69,49,1
1740,47.12116765975952,72,92,283,420,62,43,65,49,1
1741,47.14491057395935,66,85,276,424,61,37,57,47,1
1742,47.16692543029785,68,93,281,396,58,40,56,48,1
1743,47.1813862323761,59,82,231,355,43,35,47,46,1
1744,47.203139781951904,57,86,225,362,45,32,33,45,1
1745,47.217469930648804,60,92,196,301,47,33,37,46,1
1746,47.24127268791199,62,96,188,298,44,34,41,47,1
1747,47.26360511779785,59,87,170,311,46,36,50,47,1
1748,47.27789282798767,59,87,175,404,50,35,50,45,1
1749,47.30150055885315,59,81,142,405,47,34,50,43,1
1750,47.32400560379028,59,79,138,389,42,35,53,45,1
1751,47.33790111541748,58,78,151,432,45,39,56,44,1
1752,47.36110973358154,63,92,186,444,47,37,53,43,1
1753,47.384087324142456,63,92,187,353,47,39,57,44,1
1754,47.39774489402771,64,93,189,342,48,39,61,44,1
1755,47.421276807785034,59,87,199,353,47,36,56,42,1
1756,47.44382572174072,68,103,191,324,50,36,51,47,1
1757,47.457759618759155,73,104,176,301,55,41,53,53,1
1758,47.481083393096924,73,102,177,282,54,39,48,53,1
1759,47.50318169593811,71,103,186,356,57,37,43,51,1
1760,47.518285512924194,77,110,204,411,60,39,50,54,1
1761,47.54096603393555,72,97,217,410,56,37,57,51,1
1762,47.56394672393799,59,79,207,486,53,32,51,41,1
1763,47.57787752151489,62,84,219,528,53,34,51,41,1
1764,47.60124063491821,60,78,223,480,48,35,54,43,1
1765,47.62372803688049,59,73,204,426,46,38,56,42,1
1766,47.63777470588684,60,82,255,564,63,42,53,44,1
1767,47.661070346832275,68,89,265,542,65,46,62,53,1
1768,47.683751344680786,66,85,254,507,64,45,62,53,1
1769,47.698076009750366,76,95,274,530,66,47,68,57,1
1770,47.721264123916626,69,91,273,539,65,44,62,52,1
1771,47.7441132068634,64,77,225,374,50,39,60,49,1
1772,47.76631474494934,60,71,208,299,39,33,55,42,1
1773,47.78126382827759,61,71,211,356,40,33,57,41,1
1774,47.80393362045288,69,79,196,338,40,40,58,45,1
1775,47.82579827308655,76,86,201,344,47,44,64,49,1
1776,47.84062695503235,88,104,199,389,48,47,74,56,1
1777,47.86345720291138,87,103,206,407,49,46,72,57,1
1778,47.886882305145264,86,105,205,358,51,47,72,59,1
1779,47.90107583999634,70,89,198,407,51,38,65,50,1
1780,47.923757791519165,65,84,191,394,47,34,58,47,1
1781,47.94549584388733,59,81,199,400,51,32,49,42,1
1782,47.960911989212036,58,82,195,389,51,32,49,38,1
1783,47.98310422897339,64,86,187,388,46,33,57,36,1
1784,48.00563359260559,67,92,175,368,44,36,57,39,1
1785,48.021432638168335,68,93,167,365,44,36,56,41,1
1786,48.0438928604126,60,80,164,331,37,34,58,40,1
1787,48.066022634506226,69,88,187,347,38,39,65,46,1
1788,48.08098220825195,63,83,203,382,44,36,54,45,1
1789,48.103989362716675,62,77,197,375,47,34,54,41,1
1790,48.12729263305664,66,73,209,407,49,35,58,44,1
1791,48.14064645767212,68,72,204,387,46,36,54,45,1
1792,48.170990228652954,58,65,188,413,44,32,45,40,1
1793,48.18661427497864,59,64,189,399,41,34,55,40,1
1794,48.20038414001465,62,65,186,414,46,33,56,42,1
1795,48.22373151779175,65,74,183,403,49,33,53,40,1
1796,48.24670910835266,66,75,206,431,55,33,48,43,1
1797,48.260589599609375,70,75,205,423,57,38,65,46,1
1798,48.283527851104736,70,77,195,419,56,38,68,50,1
1799,48.30588698387146,66,78,202,351,48,39,67,52,1
1800,48.32030487060547,60,75,213,362,44,37,67,52,1
1801,48.34402561187744,57,76,185,331,39,34,69,47,1
1802,48.36621046066284,56,80,196,343,44,29,54,45,1
1803,48.3804407119751,78,97,192,345,50,39,62,54,1
1804,48.403584003448486,83,98,191,341,49,41,67,54,1
1805,48.42650651931763,84,100,195,353,50,44,72,55,1
1806,48.44028878211975,95,114,201,359,52,48,81,63,1
1807,48.463695764541626,97,113,195,292,46,51,86,66,1
1808,48.48656511306763,78,97,208,342,42,44,72,55,1
1809,48.500288009643555,77,97,200,364,47,42,68,54,1
1810,48.530964851379395,76,92,190,370,47,40,62,52,1
1811,48.546005725860596,62,76,221,412,52,39,51,44,1
1812,48.56043267250061,54,72,229,439,56,35,44,38,1
1813,48.584181785583496,78,105,240,429,59,41,54,52,1
1814,48.605958223342896,82,113,250,435,57,41,54,54,1
1815,48.62054777145386,81,110,258,423,55,42,58,54,1
1816,48.64398980140686,84,108,235,375,48,39,57,57,1
1817,48.66766428947449,87,110,213,353,46,40,57,59,1
1818,48.68031692504883,71,85,189,345,46,37,57,53,1
1819,48.70526170730591,65,75,173,314,43,35,57,49,1
1820,48.72638511657715,70,80,157,273,44,35,56,54,1
1821,48.74844789505005,70,84,148,306,45,35,59,50,1
1822,48.76344704627991,76,92,191,361,42,42,75,51,1
1823,48.78601956367493,86,106,206,347,43,42,69,56,1
1824,48.81020188331604,99,122,210,361,46,44,73,64,1
1825,48.82460165023804,101,127,200,358,49,44,72,63,1
1826,48.84522795677185,96,122,204,360,48,44,68,62,1
1827,48.867772340774536,101,132,176,339,48,38,54,66,1
1828,48.885024547576904,96,126,157,354,46,35,53,62,1
1829,48.91281747817993,79,107,184,354,44,32,47,51,1
1830,48.92799210548401,75,100,209,445,43,30,48,50,1
1831,48.94471335411072,77,101,205,454,46,35,60,52,1
1832,48.96519064903259,71,88,206,448,44,40,67,49,1
1833,48.98810815811157,64,77,205,414,40,40,70,44,1
1834,49.00445914268494,73,84,193,412,47,45,79,50,1
1835,49.025211334228516,72,82,174,312,44,47,80,49,1
1836,49.04770803451538,72,86,172,319,47,43,72,47,1
1837,49.06374454498291,64,72,161,295,48,37,64,45,1
1838,49.084879636764526,65,71,156,323,53,41,66,48,1
1839,49.10769748687744,61,76,157,328,47,35,54,44,1
1840,49.125032901763916,60,77,144,345,47,34,52,44,1
1841,49.14538073539734,59,71,125,314,43,34,52,45,1
1842,49.16766953468323,57,73,140,327,41,34,49,41,1
1843,49.18358254432678,53,73,162,346,39,30,43,37,1
1844,49.20544958114624,56,70,154,390,46,34,52,36,1
1845,49.22796177864075,87,108,163,389,54,42,69,58,1
1846,49.24528908729553,92,116,182,375,54,46,74,62,1
1847,49.265177965164185,92,118,168,383,54,46,74,62,1
1848,49.28798818588257,95,123,170,342,52,47,74,63,1
1849,49.30471134185791,101,127,203,295,48,50,77,70,1
1850,49.32512927055359,77,97,208,276,38,44,65,52,1
1851,49.347745418548584,68,85,194,266,36,39,58,48,1
1852,49.36605191230774,70,79,246,305,39,43,66,51,1
1853,49.38565421104431,67,68,250,319,41,39,66,47,1
1854,49.407124042510986,55,64,225,292,42,31,57,39,1
1855,49.42477607727051,62,70,219,298,44,31,59,44,1
1856,49.44522023200989,66,80,238,430,54,34,60,44,1
1857,49.467915773391724,66,82,181,383,52,31,53,42,1
1858,49.48463320732117,74,93,155,366,54,34,53,50,1
1859,49.50515127182007,75,90,163,407,53,35,54,51,1
1860,49.52800416946411,69,87,164,426,54,33,47,47,1
1861,49.544586420059204,64,77,144,314,45,31,44,45,1
1862,49.56517004966736,63,77,162,342,47,32,47,44,1
1863,49.58767890930176,58,74,178,357,47,37,51,43,1
1864,49.60591244697571,58,72,169,353,46,37,53,43,1
1865,49.62478828430176,63,75,159,321,46,40,55,45,1
1866,49.64832329750061,77,94,199,446,53,43,65,49,1
1867,49.67030477523804,88,109,249,516,64,46,75,52,1
1868,49.68716239929199,88,107,251,526,66,46,77,52,1
1869,49.70767664909363,88,111,256,510,70,50,77,52,1
1870,49.730183839797974,89,114,280,539,70,48,76,52,1
1871,49.74760127067566,97,119,264,442,70,54,85,59,1
1872,49.76782846450806,93,109,218,328,60,52,82,59,1
1873,49.79022192955017,97,118,234,307,60,52,83,61,1
1874,49.80698561668396,96,118,258,389,60,51,86,61,1
1875,49.827603578567505,93,114,240,376,62,50,84,60,1
1876,49.85076117515564,79,102,249,373,62,46,70,54,1
1877,49.86730098724365,78,110,263,401,65,45,63,52,1
1878,49.88813233375549,72,99,247,431,61,41,53,49,1
1879,49.91091799736023,67,90,208,387,55,37,40,44,1
1880,49.92707562446594,67,92,202,364,51,38,39,44,1
1881,49.94793748855591,64,93,176,367,47,33,36,45,1
1882,49.97018527984619,57,85,156,350,43,33,40,42,1
1883,49.98755884170532,64,94,153,318,47,37,51,45,1
1884,50.00782895088196,64,92,156,287,47,37,53,46,1
1885,50.030197620391846,65,90,184,305,49,38,55,47,1
1886,50.0467586517334,61,81,180,324,45,38,53,41,1
1887,50.06711530685425,63,78,174,320,44,38,52,45,1
1888,50.09021353721619,50,59,167,357,38,31,43,40,1
1889,50.107075691223145,64,76,169,340,39,35,51,51,1
1890,50.12749433517456,66,78,151,314,41,34,52,53,1
1891,50.15036416053772,66,77,141,270,44,34,52,55,1
1892,50.166987895965576,65,80,133,282,43,31,47,53,1
1893,50.187509536743164,73,89,124,210,45,40,56,59,1
1894,50.210302114486694,67,84,120,241,48,41,59,54,1
1895,50.22891330718994,68,82,109,266,45,41,64,53,1
1896,50.24763202667236,68,78,154,293,44,43,65,50,1
1897,50.2702317237854,72,83,162,322,43,43,69,51,1
1898,50.287214517593384,66,78,171,342,43,35,60,46,1
1899,50.307782888412476,60,72,187,352,39,31,50,40,1
1900,50.33027791976929,72,95,223,367,52,38,55,53,1
1901,50.346765995025635,77,103,207,360,51,40,62,58,1
1902,50.36772561073303,74,101,223,320,56,40,65,57,1
1903,50.39080834388733,79,106,239,368,55,44,74,59,1
1904,50.406949520111084,95,123,249,375,61,53,89,68,1
1905,50.42791247367859,86,108,220,354,51,47,85,56,1
1906,50.450552463531494,81,102,219,383,53,46,82,52,1
1907,50.47443914413452,83,102,205,379,54,46,78,54,1
1908,50.48778057098389,83,103,207,401,58,45,71,52,1
1909,50.510185956954956,62,81,186,414,50,35,54,41,1
1910,50.52689480781555,62,79,177,407,50,36,51,45,1
1911,50.547693490982056,65,86,218,395,52,37,55,45,1
1912,50.57018971443176,81,105,235,440,54,46,73,52,1
1913,50.58788228034973,76,100,241,373,48,43,72,52,1
1914,50.607696294784546,79,102,238,330,50,46,73,51,1
1915,50.63030242919922,79,101,250,356,50,46,71,50,1
1916,50.652801752090454,77,98,205,364,47,45,67,49,1
1917,50.66781401634216,51,71,195,327,39,36,50,37,1
1918,50.690542459487915,53,71,157,333,37,36,49,34,1
1919,50.71223282814026,71,90,151,320,40,36,49,43,1
1920,50.72720766067505,74,92,145,338,44,36,54,44,1
1921,50.750373125076294,72,92,187,339,48,36,55,44,1
1922,50.772677183151245,76,93,204,362,51,39,61,46,1
1923,50.78775477409363,73,87,211,393,53,40,61,46,1
1924,50.81013894081116,61,82,224,414,54,38,57,42,1
1925,50.83273124694824,73,99,243,433,60,47,69,56,1
1926,50.84772324562073,89,115,233,427,65,50,81,60,1
1927,50.869807720184326,97,129,225,392,62,50,84,66,1
1928,50.89231777191162,104,140,215,460,62,52,87,71,1
1929,50.907461166381836,106,137,205,496,58,54,92,73,1
1930,50.93722057342529,95,122,177,458,50,46,85,62,1
1931,50.95269298553467,83,103,158,453,37,40,72,59,1
1932,50.96707105636597,74,85,145,481,34,37,66,51,1
1933,50.990020751953125,75,84,162,375,45,38,71,53,1
1934,51.01276183128357,66,77,159,328,48,35,63,48,1
1935,51.02762055397034,67,86,210,360,46,35,60,50,1
1936,51.05010938644409,73,100,250,457,47,36,59,52,1
1937,51.07274603843689,71,103,245,454,51,35,50,50,1
1938,51.0877046585083,61,91,248,475,43,31,42,44,1
1939,51.110344648361206,69,96,256,499,44,31,48,46,1
1940,51.13296556472778,69,94,216,479,45,33,50,49,1
1941,51.14767265319824,65,81,188,370,48,34,53,49,1
1942,51.170385122299194,64,81,185,344,49,35,58,52,1
1943,51.19263529777527,63,79,167,363,47,33,55,50,1
1944,51.20762348175049,51,68,163,306,44,31,50,45,1
1945,51.230186223983765,66,91,179,330,60,34,52,47,1
1946,51.25279688835144,66,93,164,338,59,34,53,46,1
1947,51.26791262626648,77,106,189,361,62,40,62,50,1
1948,51.29054546356201,88,122,222,340,65,41,62,53,1
1949,51.31292390823364,95,126,223,365,69,43,63,56,1
1950,51.32791757583618,85,112,221,373,58,39,59,49,1
1951,51.35007429122925,86,112,212,397,60,40,57,50,1
1952,51.3726224899292,78,96,189,394,58,36,44,46,1
1953,51.38758325576782,65,76,167,382,55,36,46,43,1
1954,51.41007351875305,59,69,162,375,50,37,45,41,1
1955,51.43273448944092,54,60,160,332,47,35,43,40,1
1956,51.44762110710144,52,62,171,319,47,34,45,39,1
1957,51.470317363739014,57,68,220,408,45,36,58,42,1
1958,51.492862939834595,59,75,221,404,44,38,61,41,1
1959,51.50770545005798,70,95,247,419,48,43,73,49,1
1960,51.530073404312134,70,95,259,459,50,43,74,48,1
1961,51.553152322769165,78,98,257,469,45,45,79,54,1
1962,51.57584309577942,75,97,224,376,44,42,69,51,1
1963,51.58974266052246,74,92,213,364,44,40,66,51,1
1964,51.612441062927246,64,74,187,323,42,33,55,44,1
1965,51.636197566986084,64,75,178,362,43,36,56,45,1
1966,51.65024518966675,63,74,179,323,52,40,52,44,1
1967,51.672890186309814,61,81,213,335,52,40,53,43,1
1968,51.69509196281433,61,83,239,427,55,38,52,43,1
1969,51.71046853065491,61,82,250,495,57,38,55,43,1
1970,51.73274898529053,62,86,247,429,57,37,57,46,1
1971,51.75701880455017,61,91,244,440,51,33,57,46,1
1972,51.77024221420288,66,90,213,424,47,35,57,47,1
1973,51.793612003326416,75,96,204,356,48,41,74,52,1
1974,51.81519103050232,79,97,223,414,62,43,78,57,1
1975,51.830666065216064,79,97,227,420,61,42,76,57,1
1976,51.853699922561646,72,85,242,422,61,41,74,53,1
1977,51.87548232078552,71,82,252,459,63,44,81,53,1
1978,51.89021825790405,72,88,241,454,61,41,68,55,1
1979,51.914172649383545,71,94,242,324,46,38,59,50,1
1980,51.935462951660156,71,94,246,344,45,39,57,50,1
1981,51.950114727020264,76,103,240,336,46,38,54,53,1
1982,51.972612142562866,77,110,229,286,45,35,42,53,1
1983,51.99503540992737,72,104,250,353,49,34,43,46,1
1984,52.01010823249817,71,99,212,359,44,37,50,47,1
1985,52.03309226036072,76,103,194,331,41,38,58,50,1
1986,52.055397033691406,70,97,198,370,45,36,58,46,1
1987,52.06958031654358,62,85,198,366,43,31,56,42,1
1988,52.09278416633606,63,90,180,288,46,32,57,41,1
1989,52.1153199672699,67,96,191,351,52,32,55,41,1
1990,52.13008141517639,60,88,199,387,55,29,51,33,1
1991,52.152677059173584,58,82,176,343,50,29,49,32,1
1992,52.17522168159485,61,80,168,341,54,31,54,38,1
1993,52.190141677856445,54,69,166,348,51,32,54,40,1
1994,52.21253323554993,46,57,162,287,47,27,54,37,1
1995,52.23551607131958,63,79,177,301,54,35,64,46,1
1996,52.250176429748535,75,101,234,343,58,41,77,54,1
1997,52.27263522148132,77,103,239,455,58,46,84,52,1
1998,52.294525384902954,78,102,229,476,60,44,80,52,1
1999,52.31014108657837,80,104,249,494,59,48,82,56,1
2000,52.332765340805054,71,94,233,463,51,43,71,53,1
2001,52.35519766807556,62,81,220,439,48,38,59,46,1
2002,52.37029671669006,63,84,236,354,46,34,56,46,1
2003,52.3927264213562,80,104,259,324,45,47,71,58,1
2004,52.41511797904968,88,109,257,274,45,46,73,59,1
2005,52.430031299591064,85,108,264,347,53,46,75,58,1
2006,57.62793827056885,46,51,71,214,41,28,47,29,2
2007,57.65191650390625,48,52,65,214,41,28,49,32,2
2008,57.664867877960205,51,62,72,209,41,27,49,32,2
2009,57.68847346305847,50,60,74,188,40,28,50,34,2
2010,57.71073031425476,40,56,67,193,38,21,35,30,2
2011,57.7249698638916,42,57,66,186,46,21,31,31,2
2012,57.74820423126221,38,60,79,186,49,23,32,30,2
2013,57.77059006690979,39,55,76,190,48,25,34,35,2
2014,57.78477382659912,37,52,72,201,49,25,36,30,2
2015,57.80804705619812,42,57,74,232,50,25,43,32,2
2016,57.83006834983826,45,57,80,233,52,27,53,34,2
2017,57.844340801239014,67,52,66,238,49,27,54,35,2
2018,57.86829209327698,66,45,62,247,49,24,57,31,2
2019,57.89069652557373,67,47,69,257,52,23,54,33,2
2020,57.904967069625854,65,44,70,276,52,25,51,33,2
2021,57.92988991737366,67,49,65,252,43,23,41,33,2
2022,57.950897216796875,49,53,67,261,42,23,42,32,2
2023,57.96600937843323,54,66,79,256,41,24,38,36,2
2024,57.98802423477173,71,71,91,241,40,28,39,37,2
2025,58.01042652130127,74,71,93,179,41,25,37,37,2
2026,58.024786710739136,69,67,94,222,47,26,35,35,2
2027,58.04825139045715,68,65,98,216,46,25,32,34,2
2028,58.07044243812561,67,60,90,215,47,27,30,34,2
2029,58.084784269332886,47,54,76,214,44,24,33,32,2
2030,58.108378410339355,43,51,66,225,47,24,33,33,2
2031,58.1304669380188,45,56,75,206,44,26,37,34,2
2032,58.14480805397034,44,56,68,190,44,24,35,35,2
2033,58.16861391067505,48,48,65,190,43,23,34,31,2
2034,58.19090461730957,53,48,60,181,42,24,32,32,2
2035,58.21305012702942,56,52,69,166,33,26,34,32,2
2036,58.228002309799194,55,49,59,133,36,25,31,30,2
2037,58.250346660614014,53,44,61,136,39,26,30,29,2
2038,58.2733678817749,47,43,63,138,38,23,32,30,2
2039,58.28829264640808,44,47,72,142,41,23,32,28,2
2040,58.31008005142212,45,61,81,176,46,26,31,29,2
2041,58.332414388656616,42,60,83,176,41,26,28,29,2
2042,58.34844613075256,56,70,87,170,40,32,31,33,2
2043,58.3712592124939,68,86,99,160,42,38,32,38,2
2044,58.39306855201721,71,87,95,182,40,38,34,38,2
2045,58.40835237503052,69,78,92,143,44,36,33,35,2
2046,58.43063712120056,71,78,88,146,49,35,35,36,2
2047,58.45330333709717,72,73,83,143,47,29,34,32,2
2048,58.46789765357971,62,61,76,155,45,23,34,27,2
2049,58.490490198135376,58,61,76,146,47,25,36,27,2
2050,58.51355195045471,59,59,69,151,45,25,34,29,2
2051,58.5280818939209,56,57,68,143,39,24,32,27,2
2052,58.550498723983765,39,55,69,146,38,24,33,29,2
2053,58.57296442985535,39,50,67,181,38,23,32,28,2
2054,58.58731174468994,39,50,67,181,37,23,30,32,2
2055,58.61050772666931,35,49,59,176,39,21,26,30,2
2056,58.63297128677368,38,51,66,179,45,23,27,34,2
2057,58.64668941497803,41,54,75,200,52,24,28,32,2
2058,58.67027473449707,51,56,69,172,51,28,30,33,2
2059,58.69304800033569,46,49,65,155,50,26,30,29,2
2060,58.7073495388031,47,49,65,149,43,27,30,30,2
2061,58.730462312698364,49,48,58,147,36,26,31,31,2
2062,58.753581285476685,51,53,54,120,28,27,29,34,2
2063,58.76754689216614,40,47,59,127,30,23,28,31,2
2064,58.789851665496826,47,49,60,152,34,22,26,31,2
2065,58.81297159194946,47,48,59,148,36,23,30,30,2
2066,58.82733678817749,44,49,60,151,37,25,32,28,2
2067,58.85044288635254,43,41,55,186,39,24,33,29,2
2068,58.87312388420105,43,40,45,175,38,23,34,28,2
2069,58.88733124732971,37,38,47,154,43,23,33,28,2
2070,58.91227865219116,40,41,51,153,43,27,32,30,2
2071,58.93216013908386,39,39,52,149,42,25,31,30,2
2072,58.95507788658142,37,41,54,138,42,26,31,27,2
2073,58.97184205055237,40,43,65,143,45,28,31,29,2
2074,58.99231243133545,43,50,82,146,38,27,36,30,2
2075,59.014715909957886,43,54,89,164,42,26,34,28,2
2076,59.031540393829346,45,55,90,188,44,25,36,28,2
2077,59.052549839019775,42,52,86,161,40,22,36,28,2
2078,59.07593536376953,57,58,81,160,41,27,36,30,2
2079,59.09159588813782,55,56,67,149,40,28,32,29,2
2080,59.11247491836548,52,53,55,129,36,26,33,30,2
2081,59.134586334228516,54,57,58,141,33,30,40,31,2
2082,59.15207600593567,54,57,62,150,35,30,41,31,2
2083,59.172314167022705,39,51,67,145,29,25,41,30,2
2084,59.194634199142456,40,50,70,145,31,25,41,31,2
2085,59.21124339103699,50,52,73,147,34,27,41,30,2
2086,59.232226848602295,51,51,72,118,35,24,36,29,2
2087,59.25487017631531,52,50,73,120,35,24,37,30,2
2088,59.27223825454712,50,48,72,123,36,22,37,27,2
2089,59.293211221694946,49,46,67,126,35,22,38,26,2
2090,59.31491827964783,39,45,63,169,32,19,36,25,2
2091,59.332656145095825,41,39,63,193,32,19,33,24,2
2092,59.352553367614746,41,40,67,197,35,18,31,24,2
2093,59.374637842178345,42,44,64,192,33,20,28,25,2
2094,59.391708850860596,42,43,61,190,33,21,26,25,2
2095,59.41211199760437,44,42,69,185,36,23,31,29,2
2096,59.43468523025513,45,51,73,170,35,25,33,31,2
2097,59.457141399383545,53,63,76,156,36,29,35,33,2
2098,59.47254657745361,56,62,75,156,38,31,35,36,2
2099,59.49509525299072,68,62,78,158,39,31,35,37,2
2100,59.51143431663513,69,63,78,157,41,31,34,36,2
2101,59.53206491470337,70,61,72,162,44,30,37,38,2
2102,59.55523753166199,68,53,66,164,43,25,35,36,2
2103,59.57260847091675,65,49,64,166,41,22,35,32,2
2104,59.59240460395813,58,48,60,164,41,22,35,32,2
2105,59.61479616165161,56,49,53,137,39,19,31,29,2
2106,59.63174223899841,52,47,53,132,38,20,24,28,2
2107,59.652770042419434,47,42,63,132,37,20,24,28,2
2108,59.6746084690094,52,53,71,131,38,20,29,33,2
2109,59.69149041175842,54,65,80,130,36,21,33,34,2
2110,59.712424755096436,56,63,80,146,36,22,33,35,2
2111,59.734851360321045,57,64,78,145,31,21,33,34,2
2112,59.75144338607788,55,67,72,148,36,23,35,34,2
2113,59.77220273017883,51,62,69,151,40,24,31,31,2
2114,59.79504466056824,44,56,65,151,40,24,29,29,2
2115,59.81201672554016,41,60,70,137,42,24,33,31,2
2116,59.83186316490173,51,59,71,112,43,24,33,30,2
2117,59.85431909561157,52,57,63,105,39,23,31,29,2
2118,59.87225317955017,50,55,62,98,36,25,35,29,2
2119,59.892454385757446,50,50,55,97,36,24,33,29,2
2120,59.91431951522827,52,50,59,124,41,25,30,30,2
2121,59.9325692653656,41,55,81,154,58,25,33,28,2
2122,59.95300769805908,42,52,87,164,59,25,33,30,2
2123,59.97480487823486,41,52,91,170,59,24,29,29,2
2124,59.99169397354126,49,58,93,181,60,27,31,29,2
2125,60.01236867904663,48,57,94,152,56,29,31,27,2
2126,60.03504395484924,46,53,76,126,37,28,32,29,2
2127,60.05150032043457,47,53,74,115,36,28,32,26,2
2128,60.072290897369385,55,54,69,107,37,29,33,28,2
2129,60.09497785568237,50,52,66,119,35,26,32,28,2
2130,60.1174693107605,47,49,71,129,32,23,32,25,2
2131,60.13222098350525,48,47,77,132,35,24,31,26,2
2132,60.154940366744995,48,48,86,142,35,26,34,29,2
2133,60.177379846572876,44,55,89,145,35,25,37,31,2
2134,60.19249892234802,45,56,100,147,36,26,39,31,2
2135,60.214707374572754,47,54,91,150,39,26,40,31,2
2136,60.2375705242157,45,53,85,140,38,25,35,30,2
2137,60.25213074684143,47,51,71,139,37,23,34,28,2
2138,60.27503180503845,41,45,73,152,39,22,30,22,2
2139,60.29899621009827,40,49,72,148,41,19,28,21,2
2140,60.312257051467896,40,49,76,159,38,19,30,25,2
2141,60.33496284484863,38,47,77,160,36,19,31,24,2
2142,60.357470989227295,39,55,85,150,35,21,30,24,2
2143,60.37931418418884,43,55,86,143,33,23,29,28,2
2144,60.39455699920654,43,47,76,124,31,24,29,29,2
2145,60.41711974143982,41,48,70,113,36,25,25,26,2
2146,60.43209934234619,53,53,69,115,37,26,30,32,2
2147,60.45489048957825,52,60,74,130,38,28,32,33,2
2148,60.47726845741272,51,60,65,144,38,27,33,31,2
2149,60.49226999282837,57,59,65,152,41,29,32,30,2
2150,60.51490378379822,58,60,76,140,37,29,36,34,2
2151,60.537115812301636,49,59,74,139,40,28,31,30,2
2152,60.55215311050415,51,47,61,132,40,25,28,29,2
2153,60.57516145706177,57,47,65,129,39,24,27,30,2
2154,60.597214698791504,48,48,62,136,34,22,29,29,2
2155,60.61257791519165,50,51,56,133,36,25,27,26,2
2156,60.63462424278259,50,48,58,133,30,25,27,26,2
2157,60.66014742851257,54,50,62,133,30,25,28,25,2
2158,60.6721408367157,45,47,57,126,30,26,28,30,2
2159,60.69461679458618,45,48,55,112,32,26,28,33,2
2160,60.71649432182312,45,47,53,122,34,25,31,34,2
2161,60.732041120529175,58,56,58,133,37,26,35,38,2
2162,60.755011796951294,55,53,60,167,38,26,35,39,2
2163,60.77794361114502,57,54,63,167,40,26,34,36,2
2164,60.79200863838196,66,62,76,170,42,28,37,38,2
2165,60.815027475357056,71,68,76,179,38,27,36,39,2
2166,60.83769631385803,69,70,80,169,40,26,31,35,2
2167,60.852254152297974,66,70,82,143,37,27,31,34,2
2168,60.87512993812561,66,68,83,140,36,28,35,34,2
2169,60.897661447525024,59,60,74,129,34,25,30,28,2
2170,60.91218590736389,51,51,72,122,36,27,28,27,2
2171,60.93458080291748,43,41,63,127,36,31,30,29,2
2172,60.96568250656128,47,48,63,127,36,30,32,30,2
2173,60.97246503829956,47,52,60,119,39,31,32,31,2
2174,60.99480390548706,53,54,64,122,40,30,34,34,2
2175,61.017096519470215,52,52,66,118,40,27,35,33,2
2176,61.032201528549194,52,55,69,126,39,22,35,31,2
2177,61.05461120605469,50,52,64,110,42,21,33,31,2
2178,61.07715058326721,49,47,67,110,39,21,31,28,2
2179,61.09965777397156,50,49,63,143,37,22,31,28,2
2180,61.11475610733032,54,52,61,140,37,24,28,28,2
2181,61.137235164642334,51,49,59,158,38,24,27,29,2
2182,61.159552812576294,63,50,61,159,36,26,32,32,2
2183,61.17486548423767,64,51,65,169,36,24,34,34,2
2184,61.1970419883728,58,47,67,140,36,25,32,32,2
2185,61.21963620185852,64,61,80,145,35,27,35,34,2
2186,61.24210023880005,65,63,85,124,32,27,35,33,2
2187,61.25707483291626,51,58,81,131,31,25,30,28,2
2188,61.27991437911987,58,66,79,126,35,28,29,28,2
2189,61.29459190368652,64,69,82,144,34,30,30,29,2
2190,61.31736373901367,53,55,65,137,33,28,29,26,2
2191,61.33951425552368,52,49,59,124,31,27,28,27,2
2192,61.354729413986206,55,59,82,173,36,26,25,29,2
2193,61.377479791641235,47,54,78,169,33,25,28,27,2
2194,61.39950489997864,41,51,75,160,34,23,29,29,2
2195,61.41456937789917,42,55,82,163,34,24,28,30,2
2196,61.43715000152588,42,62,105,170,39,26,30,30,2
2197,61.45966458320618,47,59,103,129,42,28,30,33,2
2198,61.47458815574646,46,57,103,122,41,26,25,31,2
2199,61.497700929641724,45,56,103,130,41,25,26,29,2
2200,61.519843339920044,46,55,98,122,40,23,26,26,2
2201,61.534772634506226,43,47,72,141,37,22,25,27,2
2202,61.556636810302734,39,42,57,125,33,19,26,20,2
2203,61.579785108566284,42,41,55,125,32,19,28,21,2
2204,61.59442734718323,39,45,65,131,32,21,28,23,2
2205,61.617095708847046,39,47,68,153,32,23,33,27,2
2206,61.64198899269104,38,47,68,146,34,22,34,27,2
2207,61.65512275695801,36,44,65,160,35,24,36,28,2
2208,61.67776155471802,37,49,67,176,38,25,37,31,2
2209,61.6996431350708,42,62,70,171,38,27,38,34,2
2210,61.714617013931274,40,57,68,161,39,25,33,31,2
2211,61.73805093765259,43,59,80,151,41,28,35,31,2
2212,61.759605169296265,41,58,81,143,38,28,31,32,2
2213,61.7745316028595,44,55,83,137,37,26,30,29,2
2214,61.79724645614624,55,41,78,129,36,24,29,26,2
2215,61.81943321228027,56,43,76,143,38,25,30,28,2
2216,61.83499026298523,55,43,69,135,34,20,28,29,2
2217,61.85704588890076,56,43,68,131,32,19,34,29,2
2218,61.87986397743225,53,45,75,136,33,19,34,29,2
2219,61.89446711540222,43,43,70,150,34,21,37,35,2
2220,61.91735005378723,52,52,80,127,36,25,38,38,2
2221,61.939602851867676,53,58,78,132,37,26,37,37,2
2222,61.954776763916016,53,61,91,147,38,27,37,39,2
2223,61.97722125053406,51,58,84,139,37,29,37,38,2
2224,61.9995002746582,50,62,85,143,38,27,34,36,2
2225,62.022014141082764,46,54,75,140,35,23,34,32,2
2226,62.03696846961975,43,47,77,144,36,25,34,31,2
2227,62.05949020385742,52,48,69,131,41,25,33,34,2
2228,62.08206820487976,54,52,68,147,41,24,35,35,2
2229,62.09704875946045,50,45,68,127,39,24,36,31,2
2230,62.12118983268738,44,44,68,130,37,23,32,28,2
2231,62.1423442363739,49,51,64,131,38,24,33,35,2
2232,62.15718984603882,46,54,56,144,35,27,33,34,2
2233,62.1795129776001,55,56,59,120,33,29,32,36,2
2234,62.20153021812439,55,57,60,122,36,29,31,36,2
2235,62.216941118240356,58,60,61,120,38,30,30,37,2
2236,62.23984718322754,55,56,64,125,36,28,32,31,2
2237,62.26208972930908,50,56,74,115,37,26,26,28,2
2238,62.277060985565186,41,50,78,136,40,23,27,26,2
2239,62.299965620040894,39,52,79,134,40,24,28,26,2
2240,62.32233715057373,34,53,81,134,39,23,29,25,2
2241,62.337077617645264,32,52,79,163,40,23,29,25,2
2242,62.35950803756714,36,53,76,169,37,21,29,27,2
2243,62.38216018676758,33,56,70,152,36,23,25,26,2
2244,62.39711403846741,52,53,67,150,38,22,26,30,2
2245,62.42919063568115,55,51,64,167,37,23,26,33,2
2246,62.441978216171265,56,50,66,128,37,23,27,34,2
2247,62.45701813697815,60,48,65,119,43,25,34,37,2
2248,62.479681968688965,62,51,65,118,43,24,35,39,2
2249,62.51045560836792,58,56,70,141,41,24,38,36,2
2250,62.51698398590088,55,57,74,161,45,25,39,34,2
2251,62.540045499801636,57,56,73,185,49,26,38,33,2
2252,62.56199288368225,53,53,71,180,46,25,33,30,2
2253,62.57704973220825,64,51,69,180,48,26,31,31,2
2254,62.59936475753784,57,43,64,163,47,25,27,32,2
2255,62.62195324897766,56,41,65,156,48,24,27,32,2
2256,62.63697266578674,55,45,73,141,42,24,26,31,2
2257,62.66065335273743,55,44,72,142,40,23,30,32,2
2258,62.68228244781494,39,40,71,155,33,25,29,26,2
2259,62.69733500480652,50,52,85,166,33,27,32,26,2
2260,62.71992468833923,54,57,82,142,28,28,35,28,2
2261,62.741475343704224,57,55,75,129,29,28,33,28,2
2262,62.75693941116333,58,59,72,144,28,28,33,29,2
2263,62.77958059310913,57,63,75,131,29,26,34,30,2
2264,62.802003145217896,49,53,58,125,28,23,32,29,2
2265,62.81706738471985,48,47,53,122,26,20,28,27,2
2266,62.839457511901855,48,46,48,120,27,20,31,30,2
2267,62.86216998100281,53,43,53,135,27,19,28,27,2
2268,62.87703084945679,57,46,67,157,37,20,30,30,2
2269,62.89951014518738,63,59,77,160,43,25,31,34,2
2270,62.922043323516846,59,58,77,157,44,28,33,34,2
2271,62.937766551971436,58,57,80,162,43,29,31,32,2
2272,62.96156167984009,50,53,75,146,44,29,31,30,2
2273,62.98204445838928,51,52,65,126,40,28,30,30,2
2274,63.00570631027222,43,38,55,125,35,25,28,26,2
2275,63.01910948753357,45,42,63,135,35,24,29,27,2
2276,63.04154586791992,41,47,63,139,44,24,30,27,2
2277,63.064693450927734,45,49,69,147,49,24,32,28,2
2278,63.079506158828735,40,44,70,156,46,25,32,27,2
2279,63.10197687149048,42,48,67,157,45,26,33,27,2
2280,63.124143838882446,59,63,71,157,47,28,34,30,2
2281,63.13991904258728,60,64,96,156,45,30,40,31,2
2282,63.162012815475464,64,69,106,142,41,29,41,32,2
2283,63.18454551696777,63,71,103,137,43,29,40,32,2
2284,63.19885540008545,61,70,106,132,45,29,42,34,2
2285,63.22187423706055,50,57,99,135,49,27,41,35,2
2286,63.244813203811646,53,57,80,136,48,25,38,35,2
2287,63.259368658065796,51,61,71,138,47,26,36,35,2
2288,63.281941652297974,72,71,85,151,48,29,39,41,2
2289,63.30450510978699,73,69,83,158,48,28,40,39,2
2290,63.31948709487915,70,66,82,147,42,26,38,35,2
2291,63.3420569896698,67,64,78,139,36,25,34,34,2
2292,63.364524841308594,64,56,72,167,37,24,36,35,2
2293,63.37978529930115,38,43,60,147,37,21,34,29,2
2294,63.402010917663574,46,43,55,132,34,20,32,29,2
2295,63.432746171951294,52,46,67,137,35,23,39,33,2
2296,63.44020748138428,57,55,74,156,40,25,43,35,2
2297,63.46203422546387,67,59,81,178,42,27,42,36,2
2298,63.48468065261841,67,58,78,189,40,27,40,37,2
2299,63.49953842163086,61,59,87,193,42,27,40,36,2
2300,63.522321701049805,57,59,80,196,44,27,38,32,2
2301,63.5445511341095,52,50,72,183,44,26,34,31,2
2302,63.559391021728516,43,50,67,132,42,24,31,26,2
2303,63.58201885223389,47,49,70,124,44,25,32,26,2
2304,63.604576587677,51,54,63,119,44,27,31,27,2
2305,63.61933898925781,51,53,62,144,40,27,28,26,2
2306,63.64200830459595,54,54,63,143,40,26,25,25,2
2307,63.66564083099365,54,47,56,150,39,25,26,27,2
2308,63.67964959144592,53,56,55,145,37,23,30,29,2
2309,63.702691316604614,50,54,58,159,37,23,29,28,2
2310,63.724628925323486,51,56,58,134,38,21,29,29,2
2311,63.74288082122803,47,55,65,130,33,22,30,29,2
2312,63.761980056762695,44,59,73,138,39,24,36,31,2
2313,63.78451180458069,39,53,76,141,42,22,31,27,2
2314,63.79950785636902,49,56,74,150,42,23,35,30,2
2315,63.82156538963318,49,53,77,148,41,24,34,28,2
2316,63.844621896743774,49,54,71,151,44,23,36,28,2
2317,63.859360694885254,51,58,68,143,44,24,30,29,2
2318,63.88189435005188,50,55,69,151,45,26,31,31,2
2319,63.90452313423157,50,52,75,130,47,24,29,31,2
2320,63.92770004272461,48,52,73,139,48,26,29,30,2
2321,63.94210076332092,53,61,76,143,46,28,29,31,2
2322,63.96494245529175,50,56,74,171,44,29,29,31,2
2323,63.98761296272278,51,56,74,160,40,26,29,31,2
2324,64.00202775001526,42,54,69,157,38,27,30,28,2
2325,64.02445197105408,44,55,73,163,37,25,32,30,2
2326,64.04712915420532,39,44,81,166,39,23,31,30,2
2327,64.06231713294983,40,46,86,122,35,22,32,32,2
2328,64.08454585075378,43,45,83,126,33,29,32,35,2
2329,64.10757303237915,40,46,88,149,34,27,29,34,2
2330,64.122323513031,39,48,86,157,38,28,27,34,2
2331,64.14451050758362,40,48,78,146,40,30,30,34,2
2332,64.16883420944214,41,45,77,148,39,31,31,31,2
2333,64.18206262588501,39,49,79,145,40,25,28,27,2
2334,64.20451068878174,44,54,76,131,40,26,35,30,2
2335,64.2275960445404,55,56,75,115,38,27,34,30,2
2336,64.24205493927002,57,53,81,115,34,26,29,30,2
2337,64.26450800895691,55,54,84,131,35,25,27,30,2
2338,64.28760981559753,64,52,82,145,36,26,27,30,2
2339,64.3014087677002,65,48,80,189,35,25,27,27,2
2340,64.32486391067505,61,49,83,185,34,24,29,28,2
2341,64.34797835350037,70,58,85,185,35,27,33,29,2
2342,64.36197471618652,70,57,78,180,34,28,33,28,2
2343,64.38459134101868,64,59,80,183,33,28,35,26,2
2344,64.40806913375854,60,63,84,131,34,29,30,30,2
2345,64.42224311828613,59,60,81,126,38,30,30,29,2
2346,64.44443559646606,47,52,69,128,38,27,27,27,2
