,time,chanel1,chanel2,chanel3,chanel4,chanel5,chanel6,chanel7,chanel8,position
0,32.33610963821411,94,39,42,211,104,87,44,155,2
1,32.351897954940796,108,44,45,235,133,97,44,148,2
2,32.37370800971985,108,43,47,236,136,96,45,137,2
3,32.39679431915283,109,38,42,216,119,85,40,123,2
4,32.4118435382843,100,44,48,301,154,78,39,112,2
5,32.43435335159302,95,47,54,401,172,77,41,102,2
6,32.45672559738159,91,46,53,409,162,65,46,92,2
7,32.471781730651855,90,50,55,404,160,62,44,88,2
8,33.53779363632202,121,381,157,106,86,122,250,89,1
9,33.55997061729431,115,401,173,120,90,125,280,92,1
10,33.57371473312378,104,440,185,127,92,121,305,93,1
11,33.596861600875854,114,479,203,140,93,113,294,97,1
12,33.62096977233887,116,502,235,155,106,113,323,97,1
13,33.63357853889465,106,492,232,167,101,114,312,81,1
14,33.65667796134949,108,470,219,161,93,112,298,82,1
15,33.679831981658936,124,509,250,182,100,108,367,76,1
16,33.69414758682251,137,530,264,192,105,114,378,87,1
17,33.72480010986328,142,525,237,190,95,122,361,91,1
18,33.740413427352905,150,566,232,187,97,137,388,98,1
19,33.754090309143066,149,573,234,185,99,134,399,100,1
20,33.85944414138794,124,451,167,156,89,115,282,100,1
21,33.87406253814697,123,479,174,162,92,109,312,122,1
22,33.897382974624634,123,502,190,161,94,107,302,122,1
23,33.91981649398804,105,407,158,125,73,92,259,117,1
24,33.93361306190491,94,370,140,104,65,79,247,127,1
25,33.957666873931885,90,359,132,94,61,70,235,121,1
26,33.98053526878357,70,324,122,83,53,70,172,92,1
27,33.993983030319214,70,254,96,80,56,63,155,90,1
28,34.01672148704529,71,241,91,79,57,73,159,94,1
29,34.039162397384644,74,241,91,80,59,79,132,76,1
30,34.05360722541809,80,212,90,79,61,78,129,80,1
31,34.077027559280396,85,225,91,92,66,86,144,81,1
32,34.09928894042969,93,216,95,101,68,101,169,91,1
33,34.12233066558838,100,286,114,116,71,100,165,84,1
34,34.13732385635376,100,316,122,133,79,100,181,84,1
35,34.159515380859375,93,341,125,130,73,100,179,79,1
36,34.18167304992676,92,335,124,127,72,96,172,78,1
37,34.19779634475708,82,325,112,118,68,81,171,71,1
38,34.220216035842896,69,260,99,110,65,78,159,70,1
39,34.24243426322937,70,238,92,88,52,78,148,65,1
40,34.25814938545227,70,193,80,81,50,77,140,66,1
41,34.36226439476013,66,213,89,87,57,77,113,58,1
42,34.37760591506958,64,218,94,86,57,78,109,59,1
43,34.39958882331848,67,237,105,96,70,87,113,64,1
44,34.42293453216553,62,217,99,89,64,83,98,62,1
45,34.54246282577515,59,239,98,77,56,60,101,68,1
46,34.55721926689148,59,233,98,76,59,63,100,70,1
47,34.579723596572876,63,223,101,76,65,71,104,76,1
48,34.60238456726074,61,214,95,74,69,76,104,72,1
49,34.6166729927063,61,197,76,67,67,76,96,66,1
50,34.64002299308777,56,169,69,65,60,73,97,60,1
51,34.66297149658203,60,165,62,60,56,70,97,58,1
52,34.67602205276489,65,172,68,58,50,65,91,51,1
53,34.70044183731079,65,170,68,60,43,58,103,55,1
54,34.72235894203186,69,207,82,69,41,61,108,50,1
55,34.73664951324463,66,198,79,67,40,61,99,51,1
56,34.84232544898987,66,227,94,73,50,64,117,61,1
57,34.856693983078,64,224,95,76,49,64,122,56,1
58,34.88047218322754,65,196,83,70,48,53,98,48,1
59,34.90210199356079,67,230,98,84,56,67,98,49,1
60,34.91666102409363,63,212,91,83,58,65,96,49,1
61,34.93985056877136,50,198,86,75,56,65,73,48,1
62,34.962273597717285,57,212,86,73,58,65,68,50,1
63,34.97654843330383,57,197,83,74,57,65,76,50,1
64,34.999916076660156,57,177,71,63,50,59,75,47,1
65,35.02271270751953,59,176,76,70,56,65,83,47,1
66,35.03649091720581,60,168,72,65,51,62,82,49,1
67,35.059712171554565,53,165,73,65,54,62,78,53,1
68,35.08266878128052,54,185,80,70,54,67,79,51,1
69,35.10413432121277,52,178,77,66,50,56,76,51,1
70,35.120251178741455,47,178,77,55,44,53,74,54,1
71,35.142229318618774,49,186,81,59,47,53,77,53,1
72,35.164774656295776,54,192,86,62,43,59,83,48,1
73,35.1797730922699,51,166,71,52,41,53,79,52,1
74,35.20268177986145,57,199,94,78,47,65,87,64,1
75,35.224390506744385,64,209,94,84,47,65,81,63,1
76,35.23923325538635,65,224,98,85,42,68,78,68,1
77,35.26163697242737,67,219,93,82,43,62,75,66,1
78,35.2847855091095,65,222,99,83,43,63,82,62,1
79,35.299755811691284,59,210,92,69,43,52,79,49,1
80,35.322245597839355,52,200,89,67,42,47,79,49,1
81,35.34532380104065,53,208,85,68,42,43,80,45,1
82,35.35910725593567,49,209,85,67,39,45,76,43,1
83,35.38312602043152,51,211,80,67,41,43,66,48,1
84,35.40460133552551,51,191,65,55,34,46,67,49,1
85,35.419498682022095,59,187,64,46,33,46,69,62,1
86,35.442787408828735,55,151,57,41,36,49,71,62,1
87,35.46415996551514,57,155,56,42,37,51,80,65,1
88,35.47991466522217,59,161,63,43,35,53,77,60,1
89,35.50273156166077,58,180,65,46,38,51,90,60,1
90,35.52538824081421,51,202,78,49,43,54,91,49,1
91,35.53863549232483,50,218,79,49,41,51,88,47,1
92,35.561713457107544,50,223,79,53,43,54,88,51,1
93,35.584888219833374,47,215,74,52,46,54,92,51,1
94,35.59936022758484,55,200,65,56,49,61,70,54,1
95,35.62211799621582,53,191,55,54,51,60,75,55,1
96,35.64467215538025,56,173,54,53,50,60,75,56,1
97,35.65937066078186,55,189,65,57,57,67,69,61,1
98,35.68291997909546,52,218,83,62,56,69,70,63,1
99,35.70507216453552,44,214,87,61,54,66,71,60,1
100,35.71881556510925,47,215,91,62,51,64,76,60,1
101,35.74202013015747,48,218,95,65,53,64,78,59,1
102,35.77262616157532,45,184,88,57,47,53,80,52,1
103,35.778950691223145,48,158,70,56,43,49,76,52,1
104,35.80217170715332,48,160,71,52,43,48,82,51,1
105,35.82475972175598,57,148,66,60,49,50,76,50,1
106,35.839109897613525,62,146,59,59,49,53,91,48,1
107,35.86212706565857,63,157,63,61,50,52,89,56,1
108,35.88415884971619,64,158,71,63,54,53,91,55,1
109,35.89872622489929,64,188,78,67,55,51,90,56,1
110,35.92245554924011,59,202,82,67,46,56,85,54,1
111,35.94541335105896,54,221,88,73,47,51,71,54,1
112,35.958855867385864,52,221,85,73,46,53,78,49,1
113,35.98216724395752,51,209,78,68,44,49,74,48,1
114,36.00464153289795,54,171,68,61,43,50,72,45,1
115,36.027188301086426,50,177,62,52,43,48,75,51,1
116,36.04204487800598,53,154,57,42,43,55,82,60,1
117,36.064351320266724,54,145,53,42,41,55,72,58,1
118,36.086570501327515,58,172,54,43,39,62,77,56,1
119,36.101913928985596,63,180,59,49,43,64,80,60,1
120,36.124088287353516,61,149,54,45,43,62,79,55,1
121,36.14663577079773,58,150,55,47,43,59,70,50,1
122,36.16188883781433,59,144,56,47,43,55,72,48,1
123,36.18480634689331,53,124,63,51,44,53,67,54,1
124,36.207149028778076,51,170,68,51,40,49,64,53,1
125,36.22213172912598,50,171,68,53,39,49,66,50,1
126,36.244707345962524,52,195,76,55,38,50,71,51,1
127,36.267125606536865,50,200,79,62,40,63,75,51,1
128,36.282443046569824,47,202,75,59,41,61,80,48,1
129,36.304903507232666,43,180,70,59,41,64,76,46,1
130,36.3269419670105,46,193,73,61,40,63,75,46,1
131,36.34230589866638,43,182,65,60,37,64,88,39,1
132,36.36550688743591,44,181,65,55,39,56,83,41,1
133,36.38763689994812,50,184,63,55,38,54,81,38,1
134,36.40238070487976,48,187,65,63,33,56,86,41,1
135,36.424912214279175,50,171,61,61,34,55,82,44,1
136,36.446560859680176,49,149,55,55,33,50,64,45,1
137,36.46204137802124,53,175,66,56,31,51,64,53,1
138,36.48440170288086,48,197,76,60,37,49,75,56,1
139,36.50736165046692,51,210,74,50,38,55,81,55,1
140,36.521220684051514,48,243,81,53,39,61,85,57,1
141,36.54452967643738,52,245,83,56,40,67,84,58,1
142,36.56796956062317,53,232,78,56,39,66,86,50,1
143,36.58133363723755,54,220,71,52,39,67,89,60,1
144,36.60420298576355,54,184,64,52,40,57,82,55,1
145,36.62713551521301,54,198,68,51,41,51,85,55,1
146,36.64113235473633,51,195,66,53,42,47,87,57,1
147,36.66553044319153,47,191,62,46,40,45,86,58,1
148,36.68720769882202,51,176,59,50,36,46,72,46,1
149,36.708741903305054,50,175,61,46,36,47,65,47,1
150,36.72597002983093,52,105,47,47,42,49,69,46,1
151,36.74626612663269,68,133,57,47,48,53,68,48,1
152,36.76891493797302,69,134,59,48,54,53,67,49,1
153,36.78512263298035,74,145,62,46,57,56,73,46,1
154,36.80624604225159,80,163,69,58,57,58,82,54,1
155,36.82874298095703,83,177,68,66,55,61,75,53,1
156,36.84558320045471,70,187,65,64,49,59,78,51,1
157,36.866541385650635,71,180,60,65,44,59,81,50,1
158,36.88849997520447,63,171,60,66,45,54,75,51,1
159,36.905879974365234,55,163,53,60,44,53,74,51,1
160,36.926247358322144,51,153,56,52,45,53,71,52,1
161,36.94878530502319,56,127,55,51,49,55,79,51,1
162,37.14500069618225,45,175,68,49,54,64,68,56,1
163,37.16667556762695,43,176,68,48,54,62,62,53,1
164,37.18872809410095,59,167,65,49,43,58,62,51,1
165,37.205426931381226,59,149,61,58,42,58,54,49,1
166,37.22623252868652,63,189,61,66,39,63,54,49,1
167,37.25736093521118,68,212,75,69,42,65,62,50,1
168,37.26587891578674,69,209,76,70,42,66,64,51,1
169,37.286492347717285,59,204,75,71,39,61,72,48,1
170,37.30887699127197,56,194,69,61,41,60,71,52,1
171,37.32481336593628,55,163,68,54,46,57,83,51,1
172,37.34711480140686,53,131,50,42,42,50,76,51,1
173,37.37005066871643,59,172,58,45,41,54,83,56,1
174,37.387120723724365,54,168,57,41,44,61,71,54,1
175,37.40667915344238,59,171,58,45,42,59,71,52,1
176,37.428818702697754,64,152,54,43,35,55,60,53,1
177,37.444812536239624,64,158,55,46,38,56,58,50,1
178,37.46619153022766,61,126,47,47,41,56,59,44,1
179,37.48917484283447,63,130,44,53,42,51,61,46,1
180,37.50698709487915,59,156,47,53,43,54,67,54,1
181,37.52616477012634,56,167,54,60,47,56,73,50,1
182,37.549447774887085,58,169,63,61,46,55,76,50,1
183,37.56638288497925,55,163,64,58,43,50,67,58,1
184,37.58598041534424,61,165,76,55,48,48,77,61,1
185,37.609174728393555,60,142,75,52,44,43,74,56,1
186,37.62546992301941,57,134,69,43,38,40,68,56,1
187,37.64652228355408,59,128,70,43,40,43,71,56,1
188,37.670570611953735,58,124,68,41,39,41,75,54,1
189,37.685750246047974,49,109,53,39,30,40,68,48,1
190,37.70700144767761,51,157,73,50,39,44,75,47,1
191,37.729548931121826,51,153,74,51,39,40,76,46,1
192,37.746386766433716,44,147,66,47,35,39,69,47,1
193,37.76648545265198,42,179,75,50,38,43,76,39,1
194,37.78861951828003,46,186,82,53,43,44,78,48,1
195,37.805400133132935,44,164,68,41,36,40,72,50,1
196,37.82581090927124,50,170,68,39,37,49,77,57,1
197,37.851452589035034,53,172,69,41,37,46,78,57,1
198,37.86522436141968,54,146,68,42,36,45,77,66,1
199,37.885894775390625,54,154,63,40,30,47,72,61,1
200,37.90842795372009,60,133,60,42,30,50,76,58,1
201,37.9319269657135,54,126,64,42,34,49,71,64,1
202,37.9460973739624,49,131,60,41,36,50,68,64,1
203,37.96917700767517,58,134,55,35,39,48,88,57,1
204,37.990938663482666,56,138,60,43,41,51,99,58,1
205,38.00649952888489,52,137,59,50,45,52,95,60,1
206,38.02946972846985,53,172,59,54,45,49,93,48,1
207,38.051369428634644,56,168,61,55,46,53,99,47,1
208,38.0664279460907,47,161,58,61,43,57,73,43,1
209,38.0896372795105,47,152,61,61,50,56,59,40,1
210,38.110830783843994,47,157,60,55,47,54,61,41,1
211,38.126564264297485,45,119,56,61,45,53,80,45,1
212,38.149452924728394,42,117,55,62,44,51,75,43,1
213,38.17193555831909,39,107,50,58,45,49,75,46,1
214,38.18612790107727,40,122,46,58,40,50,88,51,1
215,38.2084219455719,41,119,47,64,45,52,91,50,1
216,38.23198962211609,41,115,46,56,43,51,75,47,1
217,38.254475593566895,43,126,52,56,44,49,86,48,1
218,38.269006967544556,48,149,61,58,47,49,95,49,1
219,38.291316986083984,53,159,61,58,45,45,83,54,1
220,38.307270765304565,54,170,62,54,40,45,84,56,1
221,38.32839870452881,54,166,61,53,40,42,85,56,1
222,38.35127234458923,53,193,68,55,44,59,81,56,1
223,38.36679244041443,53,181,62,52,44,58,74,56,1
224,38.388684034347534,56,178,60,50,41,58,78,49,1
225,38.411261558532715,52,167,60,55,50,58,75,45,1
226,38.426183462142944,56,170,63,55,53,62,73,45,1
227,38.45698690414429,59,148,61,55,47,56,65,45,1
228,38.47268080711365,57,165,70,64,51,58,64,47,1
229,38.486265659332275,50,147,68,61,50,56,55,43,1
230,38.509188652038574,56,189,73,75,45,76,62,48,1
231,38.531529664993286,52,189,71,78,45,72,62,55,1
232,38.547386169433594,47,192,67,75,45,67,70,55,1
233,38.5693154335022,53,218,74,74,39,68,74,59,1
234,38.591827392578125,59,230,76,77,43,72,77,61,1
235,38.606390714645386,54,205,72,56,42,56,69,61,1
236,38.62871527671814,59,233,76,63,42,62,70,57,1
237,38.650981426239014,62,236,74,66,46,66,74,62,1
238,38.66708278656006,56,206,56,62,46,63,67,53,1
239,38.68884515762329,49,188,54,58,46,59,63,53,1
240,38.71127915382385,53,182,53,62,42,57,65,50,1
241,38.72733807563782,50,165,53,51,40,50,66,56,1
242,38.74901008605957,46,151,49,51,36,47,62,51,1
243,38.77128505706787,51,179,59,59,41,55,68,53,1
244,38.7859890460968,53,192,66,63,44,59,75,57,1
245,38.8085036277771,55,216,74,73,48,64,77,57,1
246,38.83111071586609,52,202,71,71,48,65,73,52,1
247,38.84639239311218,54,213,75,68,48,64,70,50,1
248,38.86826157569885,53,207,76,64,46,61,63,50,1
249,38.89149332046509,52,200,71,62,44,57,69,47,1
250,38.914140701293945,53,173,63,54,47,48,65,43,1
251,38.92863607406616,59,179,66,56,45,47,69,43,1
252,38.95387530326843,57,185,79,62,46,51,83,42,1
253,38.973414182662964,67,210,84,58,50,56,87,57,1
254,38.988797664642334,66,205,81,61,47,58,77,57,1
255,39.011629819869995,62,207,81,54,44,57,80,65,1
256,39.033666133880615,61,229,88,60,51,73,89,71,1
257,39.049678802490234,62,221,77,57,50,71,70,70,1
258,39.07153916358948,54,199,69,62,45,63,70,62,1
259,39.09424543380737,61,197,70,56,47,61,77,59,1
260,39.108269691467285,61,205,74,57,44,65,74,52,1
261,39.13082218170166,59,178,65,52,38,54,60,49,1
262,39.15429401397705,59,165,63,47,39,50,71,55,1
263,39.169601917266846,55,143,58,43,37,52,68,59,1
264,39.19929337501526,47,150,62,45,38,54,68,62,1
265,39.214871883392334,47,174,65,45,40,50,69,60,1
266,39.22873783111572,48,176,65,46,38,44,73,56,1
267,39.25139570236206,55,193,70,54,42,51,68,52,1
268,39.273874044418335,56,189,69,53,39,55,80,58,1
269,39.29006361961365,56,199,73,58,43,55,78,56,1
270,39.31165051460266,55,166,63,59,41,56,78,59,1
271,39.33409237861633,54,163,67,59,46,57,78,60,1
272,39.348896503448486,44,153,66,54,42,55,77,63,1
273,39.371023654937744,45,152,69,53,42,61,81,54,1
274,39.39367938041687,45,137,68,50,38,58,77,53,1
275,40.33154511451721,250,577,298,228,126,224,869,169,1
276,40.35389947891235,220,601,295,199,114,213,749,181,1
277,40.376232385635376,200,546,245,187,107,216,666,164,1
278,40.391234159469604,202,563,244,187,112,212,710,167,1
279,40.41328239440918,229,544,222,165,105,199,625,153,1
280,40.43707013130188,232,624,242,186,111,199,597,167,1
281,40.45135498046875,217,529,202,179,103,191,588,151,1
282,40.47342085838318,192,526,202,164,95,169,478,156,1
283,40.49593997001648,181,492,192,159,88,165,385,161,1
284,40.51098847389221,150,462,188,161,87,155,332,169,1
285,40.533271074295044,130,355,165,149,79,128,320,160,1
286,40.55608630180359,126,428,169,153,74,117,296,146,1
287,40.57078671455383,124,406,157,145,77,119,292,136,1
288,40.59374690055847,129,383,141,139,73,116,298,124,1
289,40.615944147109985,123,369,131,125,68,99,306,108,1
290,40.63143563270569,138,365,114,103,64,93,271,103,1
291,40.65424656867981,132,316,116,88,59,92,280,101,1
292,40.67592430114746,132,342,126,102,53,91,300,97,1
293,40.69105291366577,124,349,128,111,58,86,289,101,1
294,40.71404027938843,119,359,125,118,60,93,292,106,1
295,40.736751079559326,111,352,130,124,59,106,331,113,1
296,40.750776529312134,100,343,138,128,59,108,310,108,1
297,40.77332830429077,95,326,128,121,53,102,271,107,1
298,40.7967803478241,94,339,128,124,55,117,252,104,1
299,40.826478242874146,89,342,135,121,58,123,234,105,1
300,40.83343005180359,80,361,147,117,65,117,189,101,1
301,40.85642099380493,89,329,133,111,71,112,263,109,1
302,40.878324031829834,90,375,147,130,79,115,273,114,1
303,40.89350628852844,93,352,143,123,74,103,283,112,1
304,40.91583967208862,104,358,146,124,73,97,286,149,1
305,40.93853163719177,109,342,133,118,71,90,278,141,1
306,41.036349296569824,105,244,105,91,47,81,176,101,1
307,41.058876752853394,102,237,107,91,45,90,222,104,1
308,41.07371664047241,89,286,115,97,50,90,213,96,1
309,41.10481238365173,84,279,97,109,53,93,204,103,1
310,41.11913013458252,83,315,114,122,58,94,223,96,1
311,41.13388752937317,69,307,115,123,61,93,214,93,1
312,41.15686011314392,68,307,113,120,61,85,159,85,1
313,41.17871570587158,58,261,99,108,51,78,152,84,1
314,41.19396209716797,75,271,104,99,52,90,148,76,1
315,41.21615958213806,72,234,96,81,56,86,124,78,1
316,41.23889970779419,71,251,97,87,57,81,151,79,1
317,41.254645347595215,78,249,97,91,62,92,153,81,1
318,41.27636480331421,99,240,107,89,73,95,156,92,1
319,41.298842668533325,93,239,96,95,76,100,235,95,1
320,41.31390690803528,98,265,96,99,75,115,265,104,1
321,41.3367121219635,97,258,103,90,85,116,254,108,1
322,41.35889983177185,100,288,107,101,84,116,258,106,1
323,41.37384533882141,110,290,108,98,79,114,262,116,1
324,41.395792722702026,110,279,115,94,74,98,193,107,1
325,41.41878867149353,108,250,109,91,72,75,149,90,1
326,41.43371319770813,114,333,132,110,66,97,174,105,1
327,41.45777249336243,107,311,131,98,65,85,176,107,1
328,41.47860646247864,103,346,133,116,66,97,174,94,1
329,41.493717432022095,138,345,137,125,70,117,220,106,1
330,41.516666889190674,170,353,144,134,73,138,380,156,1
331,41.53855538368225,181,307,148,141,75,132,382,158,1
332,41.55341958999634,194,301,149,144,79,139,435,171,1
333,41.576167345047,187,277,151,135,76,137,446,180,1
334,41.59866404533386,189,400,204,164,87,132,463,198,1
335,41.61370778083801,164,423,212,174,90,131,389,181,1
336,41.63663196563721,157,509,212,177,86,123,392,177,1
337,41.65904641151428,155,525,219,179,91,128,360,185,1
338,41.67328071594238,153,537,218,184,98,127,347,187,1
339,41.6958167552948,127,508,181,185,97,119,414,191,1
340,41.719454288482666,135,500,188,190,102,100,429,182,1
341,41.74136567115784,126,402,166,171,101,100,417,176,1
342,41.756319761276245,119,432,171,176,108,100,412,159,1
343,41.77914261817932,126,481,183,183,107,107,447,160,1
344,41.958154916763306,122,461,141,96,46,104,226,73,1
345,41.98198580741882,123,480,141,101,45,111,243,79,1
346,41.99645447731018,125,379,110,105,46,96,225,82,1
347,42.01880931854248,119,367,114,100,52,100,206,92,1
348,42.041298151016235,110,345,111,105,53,101,195,98,1
349,42.0565869808197,107,347,108,104,55,97,186,98,1
350,42.078861474990845,107,355,123,102,59,92,170,98,1
351,42.101502418518066,89,310,121,107,58,82,170,88,1
352,42.116424560546875,76,305,117,112,58,87,183,89,1
353,42.13892149925232,67,293,118,108,60,77,179,83,1
354,42.16212177276611,67,314,125,110,59,80,176,81,1
355,42.17649579048157,64,280,105,116,59,84,165,76,1
356,42.19870710372925,81,310,105,107,68,95,164,90,1
357,42.223774671554565,92,322,106,102,71,94,133,89,1
358,42.236069440841675,96,341,109,104,72,96,131,98,1
359,42.25886344909668,106,350,112,108,73,98,159,110,1
360,42.28178381919861,105,349,118,107,74,101,196,123,1
361,42.29564380645752,90,310,112,95,60,92,175,115,1
362,42.31933784484863,85,275,109,94,56,82,207,114,1
363,42.356926918029785,93,265,116,91,61,81,234,110,1
364,42.359025716781616,80,236,111,84,64,74,222,110,1
365,42.37817692756653,83,227,106,86,60,63,202,103,1
366,42.40211296081543,92,235,106,85,66,68,223,103,1
367,42.42479944229126,97,280,120,98,68,73,194,104,1
368,42.438785791397095,90,257,107,96,63,73,161,101,1
369,42.462056159973145,102,258,107,102,60,77,160,92,1
370,42.476656436920166,108,247,107,100,58,76,146,97,1
371,42.49842929840088,106,237,105,99,53,73,116,92,1
372,42.5220422744751,106,186,81,88,43,63,114,90,1
373,42.537068605422974,104,218,90,91,39,64,110,90,1
374,42.55822467803955,93,214,86,82,35,63,97,85,1
375,42.58194160461426,89,203,85,88,44,61,143,67,1
376,42.596216917037964,100,281,115,119,53,75,162,69,1
377,42.618654012680054,96,268,116,112,56,75,164,69,1
378,42.64128112792969,99,244,108,107,57,78,188,73,1
379,42.65620970726013,100,238,107,108,57,81,196,73,1
380,42.678460121154785,98,249,102,99,51,90,167,79,1
381,42.701560735702515,85,179,76,59,39,73,157,79,1
382,42.724464416503906,76,205,83,65,43,72,153,68,1
383,42.738768339157104,73,225,96,88,57,84,145,61,1
384,42.76975750923157,79,225,99,94,56,85,146,62,1
385,42.784637451171875,73,214,102,90,56,75,152,57,1
386,42.79874086380005,78,202,96,97,63,90,153,72,1
387,42.82189083099365,88,240,118,103,66,92,191,78,1
388,42.844743728637695,90,233,111,87,57,75,178,80,1
389,42.85809350013733,86,269,116,102,60,83,171,81,1
390,42.8818199634552,84,280,119,104,61,88,172,81,1
391,42.904625415802,75,283,122,107,58,90,167,72,1
392,42.91928005218506,70,247,91,102,48,88,112,62,1
393,42.9413788318634,65,258,99,105,51,91,125,62,1
394,42.96389436721802,63,218,98,89,55,82,141,56,1
395,42.97841429710388,80,212,96,88,58,76,132,56,1
396,43.00211715698242,82,215,104,85,58,58,147,52,1
397,43.024415493011475,77,227,116,82,60,58,170,56,1
398,43.048163652420044,81,209,109,78,57,65,186,69,1
399,43.06205201148987,81,211,101,73,51,62,188,73,1
400,43.0848433971405,77,210,100,72,47,64,192,79,1
401,43.09887075424194,76,205,95,58,42,61,174,79,1
402,43.12228798866272,76,182,82,54,43,63,164,80,1
403,43.14487648010254,71,180,81,54,40,56,143,67,1
404,43.15807294845581,68,181,78,55,39,56,135,69,1
405,43.180872678756714,61,180,79,57,38,53,127,67,1
406,43.20460748672485,65,272,108,70,43,63,132,69,1
407,43.218722343444824,71,271,118,74,46,62,135,65,1
408,43.241089820861816,73,343,146,90,53,64,124,73,1
409,43.26435947418213,82,345,149,88,54,66,144,68,1
410,43.27915620803833,78,344,146,88,59,71,153,65,1
411,43.30115580558777,73,290,129,82,56,67,155,63,1
412,43.324509143829346,67,313,134,89,53,68,167,63,1
413,43.338841676712036,64,267,113,79,55,72,165,54,1
414,43.361499547958374,68,264,114,80,58,76,139,53,1
415,43.38521647453308,73,256,113,82,52,71,133,47,1
416,43.39920401573181,83,270,109,88,51,66,131,44,1
417,43.421459674835205,85,243,89,78,50,65,94,43,1
418,43.4444785118103,89,221,81,74,43,57,96,48,1
419,43.458993434906006,78,231,82,79,41,55,115,48,1
420,43.48153352737427,77,255,92,78,43,56,111,64,1
421,43.50398921966553,73,223,91,78,45,62,111,66,1
422,43.51825475692749,73,217,93,79,51,63,129,68,1
423,43.541419506073,68,257,105,81,50,73,164,84,1
424,43.564459562301636,79,270,108,92,52,89,229,103,1
425,43.57872033119202,81,264,109,96,51,98,236,98,1
426,43.60194706916809,77,272,115,95,53,95,262,106,1
427,43.62421274185181,77,273,114,94,47,93,263,108,1
428,43.6474928855896,76,257,118,95,53,87,261,94,1
429,43.66051912307739,68,239,115,87,47,68,198,80,1
430,43.68434166908264,67,262,115,98,49,81,197,84,1
431,43.70640778541565,71,306,120,102,47,100,168,74,1
432,43.72138237953186,75,313,123,104,49,104,158,71,1
433,43.74379515647888,80,295,106,100,45,114,139,72,1
434,43.772976875305176,83,295,105,93,50,115,138,69,1
435,43.780914306640625,84,278,105,81,57,105,136,61,1
436,43.811392068862915,77,230,87,73,56,91,130,58,1
437,43.82665395736694,72,232,86,75,55,104,162,60,1
438,43.84111404418945,72,305,112,88,61,100,156,79,1
439,43.86437940597534,65,314,114,99,58,102,158,78,1
440,43.887134313583374,61,299,106,93,50,96,151,81,1
441,43.901257038116455,65,321,124,96,56,98,156,86,1
442,43.926127195358276,64,312,121,91,55,80,118,84,1
443,43.9466073513031,71,234,97,82,55,77,117,67,1
444,43.9609854221344,77,234,96,75,55,74,118,66,1
445,43.98413848876953,89,271,102,77,57,78,142,78,1
446,44.00655746459961,91,241,77,74,52,79,133,70,1
447,44.02137017250061,96,272,90,80,55,82,134,74,1
448,44.04444670677185,85,268,89,75,46,70,132,72,1
449,44.06690335273743,85,282,98,81,50,81,131,83,1
450,44.08136343955994,70,281,108,86,49,80,98,73,1
451,44.10426092147827,64,265,108,79,47,71,101,78,1
452,44.12697410583496,56,233,100,77,44,75,112,75,1
453,44.14136552810669,76,306,120,115,58,94,111,85,1
454,44.16373372077942,85,277,110,113,52,86,106,73,1
455,44.1864857673645,90,300,111,123,52,90,113,72,1
456,44.200989723205566,92,304,112,125,52,91,107,67,1
457,44.22441005706787,97,310,116,122,57,92,144,74,1
458,44.2464714050293,90,309,114,104,49,86,143,68,1
459,44.260932207107544,77,315,116,105,54,87,144,69,1
460,44.28373169898987,72,260,98,85,54,86,147,67,1
461,44.30692386627197,77,256,95,84,55,91,157,67,1
462,44.32156801223755,72,266,89,84,50,85,111,64,1
463,44.34424614906311,80,241,95,73,50,83,113,70,1
464,44.367074728012085,85,235,90,63,46,81,114,74,1
465,44.38156867027283,89,258,94,68,44,82,125,77,1
466,44.40429902076721,86,268,98,68,46,78,120,85,1
467,44.42712450027466,87,304,108,86,51,87,127,81,1
468,44.44088649749756,76,268,93,81,57,83,131,76,1
469,44.46401000022888,74,285,98,84,58,81,137,71,1
470,44.487101793289185,69,266,93,80,58,71,118,70,1
471,44.5005784034729,69,268,91,77,54,69,113,61,1
472,44.52460503578186,68,223,90,63,52,56,107,64,1
473,44.54864478111267,69,245,89,66,40,55,100,58,1
474,44.560571908950806,69,229,90,60,44,56,89,57,1
475,44.58405041694641,81,234,94,70,49,63,95,56,1
476,44.6067910194397,99,274,109,93,55,67,106,59,1
477,44.62909770011902,99,263,98,88,53,65,100,57,1
478,44.64448809623718,109,246,87,86,56,72,104,69,1
479,44.66741061210632,105,242,84,91,54,71,100,69,1
480,44.68923473358154,100,242,77,84,51,66,105,71,1
481,44.70384931564331,78,227,61,66,50,62,95,70,1
482,44.72826910018921,77,237,71,68,50,61,105,71,1
483,44.74919939041138,63,234,77,79,45,51,100,67,1
484,44.76388883590698,62,233,78,76,43,47,100,74,1
485,44.786725997924805,68,242,86,84,49,62,96,70,1
486,44.81035399436951,70,212,83,82,46,65,89,70,1
487,44.823795318603516,80,236,96,94,64,77,126,73,1
488,44.847092390060425,79,245,97,89,64,77,139,73,1
489,44.869004011154175,80,246,98,92,71,83,153,75,1
490,44.88445782661438,74,229,94,86,67,73,149,75,1
491,44.90729904174805,77,233,95,90,66,75,155,74,1
492,44.92942571640015,73,205,83,81,55,64,131,68,1
493,44.94475197792053,76,187,78,75,55,63,116,65,1
494,44.96617865562439,78,189,79,74,46,62,105,55,1
495,44.989418029785156,74,202,87,81,52,61,122,62,1
496,45.00423192977905,72,191,90,85,60,58,113,61,1
497,45.0268771648407,73,172,80,84,54,54,104,63,1
498,45.049495458602905,70,157,79,80,54,52,104,67,1
499,45.063780784606934,67,166,79,79,58,44,100,69,1
500,45.08682703971863,79,191,80,80,53,47,110,61,1
501,45.1092746257782,78,187,74,66,46,46,116,71,1
502,45.12383437156677,70,199,75,68,50,48,119,73,1
503,45.14633536338806,75,254,85,82,49,53,120,66,1
504,45.1687068939209,81,254,84,79,49,66,138,88,1
505,45.182990074157715,67,240,83,77,51,64,119,93,1
506,45.20726728439331,68,256,89,81,49,65,116,91,1
507,45.22932744026184,68,247,89,74,46,64,111,88,1
508,45.24367904663086,71,232,85,64,49,69,123,92,1
509,45.26696586608887,70,278,96,82,45,89,125,85,1
510,45.289302110672,70,262,89,76,44,92,126,81,1
511,45.30374836921692,66,255,83,71,47,93,126,75,1
512,45.32771348953247,66,292,109,78,45,93,134,76,1
513,45.34934687614441,61,264,112,79,50,89,142,73,1
514,45.36370778083801,57,202,100,65,50,65,143,63,1
515,45.38685631752014,68,205,101,69,48,64,141,64,1
516,45.40969443321228,71,203,101,74,48,64,146,69,1
517,45.423681020736694,68,139,71,66,49,64,141,67,1
518,45.447391748428345,64,143,66,73,47,58,129,71,1
519,45.469066858291626,67,187,73,78,46,55,103,68,1
520,45.48300290107727,64,190,83,81,47,54,106,67,1
521,45.50688362121582,61,185,79,81,45,51,96,60,1
522,45.52926588058472,80,209,84,81,48,53,99,63,1
523,45.55169987678528,81,204,83,70,45,62,98,57,1
524,45.56672930717468,76,164,80,62,48,57,95,51,1
525,45.590235233306885,80,199,82,59,49,62,87,52,1
526,45.611199140548706,81,191,83,54,50,63,102,76,1
527,45.626657009124756,72,183,81,54,48,66,102,76,1
528,45.64937686920166,70,195,79,59,47,64,101,81,1
529,45.67211437225342,72,196,78,60,52,65,104,83,1
530,45.68650221824646,63,204,84,69,54,71,115,83,1
531,45.70933699607849,63,214,85,79,59,76,106,65,1
532,45.73202586174011,52,203,82,81,58,72,104,66,1
533,45.74638628959656,49,264,104,84,62,78,99,60,1
534,45.76861500740051,49,286,109,94,56,87,107,56,1
535,45.79178762435913,53,270,103,90,52,77,126,57,1
536,45.8068470954895,58,265,101,81,46,70,129,54,1
537,45.82991099357605,59,273,105,81,45,67,123,48,1
538,45.85205340385437,65,245,90,80,42,62,122,55,1
539,45.866455078125,73,241,87,72,43,54,115,59,1
540,45.89016771316528,70,259,87,68,45,55,90,57,1
541,45.91183114051819,68,286,88,73,44,56,80,56,1
542,45.926117181777954,69,279,86,74,48,63,99,64,1
543,45.94960355758667,67,243,73,69,43,55,97,57,1
544,45.971843004226685,56,232,69,64,41,50,95,53,1
545,45.98650312423706,57,202,59,59,37,48,95,62,1
546,46.01026248931885,53,161,68,60,39,48,94,62,1
547,46.031659841537476,51,164,70,59,40,40,73,56,1
548,46.045904874801636,47,244,98,70,45,61,107,63,1
549,46.06954836845398,52,253,102,76,49,64,107,63,1
550,46.0988245010376,49,249,103,78,52,69,103,54,1
551,46.105506896972656,54,254,97,75,52,73,105,63,1
552,46.128732442855835,59,290,100,84,51,89,108,68,1
553,46.15186524391174,60,231,74,75,49,78,68,63,1
554,46.166463136672974,57,212,65,71,47,76,67,61,1
555,46.18859934806824,61,205,62,69,43,73,60,61,1
556,46.211148262023926,73,227,74,71,43,69,58,57,1
557,46.22560381889343,71,175,64,56,42,48,55,50,1
558,46.24945855140686,75,184,63,58,43,64,76,47,1
559,46.271320104599,78,201,71,63,44,68,81,50,1
560,46.28581643104553,74,198,68,60,44,67,83,51,1
561,46.317240953445435,58,162,56,53,41,65,83,43,1
562,46.33223009109497,53,186,60,60,40,63,84,63,1
563,46.34602403640747,53,172,63,56,38,46,79,64,1
564,46.3692786693573,49,163,63,54,35,43,78,62,1
565,46.39208793640137,46,165,65,55,35,44,73,64,1
566,46.4059784412384,49,173,66,56,36,42,83,62,1
567,46.429723262786865,52,166,71,59,38,42,83,45,1
568,46.451165199279785,43,173,71,56,40,40,73,45,1
569,46.46617770195007,38,157,64,50,41,39,65,46,1
570,46.48950719833374,42,162,64,48,40,39,68,48,1
571,46.51220917701721,42,169,64,52,42,50,65,54,1
572,46.53428936004639,38,148,56,40,38,53,62,52,1
573,46.54861640930176,38,136,50,39,36,51,59,48,1
574,46.571999073028564,42,148,51,41,33,51,63,54,1
575,46.59454917907715,49,143,52,48,36,55,62,51,1
576,46.609219789505005,53,124,47,45,37,54,58,53,1
577,46.63183808326721,59,120,45,46,39,54,55,54,1
578,46.65483593940735,61,118,42,51,39,57,55,54,1
579,46.66941285133362,69,152,51,54,39,56,66,68,1
580,46.6920006275177,67,161,60,55,40,53,66,74,1
581,46.713571071624756,62,167,65,56,38,46,59,70,1
582,46.73088455200195,57,164,65,54,36,43,57,70,1
583,46.751927614212036,62,165,67,51,35,43,61,73,1
584,46.77298879623413,52,118,60,52,39,44,46,54,1
585,46.790541648864746,44,99,52,45,40,46,49,43,1
586,46.81368660926819,50,152,62,55,44,58,52,43,1
587,46.83384132385254,52,161,65,57,47,59,51,43,1
588,46.85072994232178,45,164,63,60,48,59,53,40,1
589,46.870429039001465,54,180,63,60,44,61,56,39,1
590,46.893744230270386,56,196,65,69,46,63,55,42,1
591,46.9111008644104,58,162,52,71,44,53,62,46,1
592,46.93332839012146,55,163,52,72,41,52,64,47,1
593,46.95400261878967,57,164,53,72,39,48,59,48,1
594,46.96940636634827,57,175,61,74,39,49,69,50,1
595,46.99311113357544,61,167,57,70,32,42,69,51,1
596,47.01305294036865,54,160,56,56,32,41,60,47,1
597,47.030481576919556,57,175,63,59,32,52,68,47,1
598,47.060829877853394,66,190,75,63,32,55,74,50,1
599,47.074084997177124,63,179,68,57,30,52,59,49,1
600,47.08989381790161,63,178,67,54,34,53,59,49,1
601,47.11347556114197,62,173,67,58,30,53,66,50,1
602,47.133512020111084,60,183,62,59,32,49,62,46,1
603,47.150131702423096,53,223,78,69,37,50,56,44,1
604,47.17271184921265,53,217,78,72,39,49,57,43,1
605,47.19294881820679,58,217,82,76,40,50,57,41,1
606,47.215858697891235,59,220,86,71,42,48,50,38,1
607,47.233104944229126,65,251,99,78,42,46,50,52,1
608,47.25372529029846,61,289,110,88,47,55,57,50,1
609,47.270907402038574,59,291,110,87,46,56,58,51,1
610,47.29180693626404,54,290,108,83,44,54,53,51,1
611,47.31350827217102,59,299,110,95,51,63,55,60,1
612,47.33057475090027,52,262,99,87,52,61,56,53,1
613,47.353094816207886,54,163,67,62,44,51,52,52,1
614,47.37346315383911,57,193,73,70,48,56,56,54,1
615,47.39306998252869,54,194,73,75,47,57,59,55,1
616,47.412081241607666,54,199,67,63,41,57,71,60,1
617,48.21367907524109,88,255,107,76,67,77,168,76,1
618,48.236085414886475,92,274,112,75,59,75,157,75,1
619,48.25300312042236,91,310,119,84,57,86,152,88,1
620,48.27430033683777,91,303,111,87,56,88,150,89,1
621,48.295960426330566,89,324,115,93,58,90,158,96,1
622,48.313178300857544,79,307,106,93,56,81,135,95,1
623,48.332841634750366,66,291,100,89,53,73,132,92,1
624,48.35557198524475,63,233,91,76,48,65,128,83,1
625,48.37851929664612,65,223,90,77,49,64,142,90,1
626,48.39351511001587,64,184,80,68,42,56,131,73,1
627,48.416006326675415,59,207,80,61,38,58,123,77,1
628,48.44651222229004,63,215,84,68,39,65,138,80,1
629,48.45309543609619,69,225,80,65,38,60,139,78,1
630,48.476009130477905,65,242,79,59,37,60,122,70,1
631,48.49869918823242,72,293,98,71,54,69,146,77,1
632,48.51321506500244,66,313,104,76,57,66,144,78,1
633,48.53671669960022,66,330,111,75,56,60,141,77,1
634,48.55927538871765,61,321,116,85,59,56,150,78,1
635,48.57351279258728,69,321,119,87,59,57,150,75,1
636,48.59603452682495,66,277,104,79,43,48,141,69,1
637,48.61846089363098,69,233,97,76,42,50,145,58,1
638,48.63341021537781,68,214,96,77,49,51,153,60,1
639,48.6576292514801,66,197,86,64,45,52,142,57,1
640,48.678499937057495,62,158,78,63,45,54,146,54,1
641,48.69329261779785,60,175,80,68,47,60,133,60,1
642,48.71587872505188,58,180,78,70,44,59,125,64,1
643,48.738723278045654,62,187,73,71,40,67,104,66,1
644,48.75322079658508,61,188,69,72,43,68,93,71,1
645,48.77750372886658,58,199,70,72,41,65,80,72,1
646,48.80045199394226,59,222,74,73,43,70,77,65,1
647,48.813371896743774,63,229,83,75,49,72,77,61,1
648,48.835843563079834,56,202,78,67,46,67,88,54,1
649,48.85853123664856,67,212,84,72,48,69,90,56,1
650,48.8752224445343,66,224,92,71,51,74,116,64,1
651,48.895713567733765,65,206,87,71,49,66,113,64,1
652,48.91808271408081,63,198,80,69,45,66,112,65,1
653,48.933512449264526,66,220,84,71,52,76,104,68,1
654,48.956053018569946,75,215,80,67,55,78,110,60,1
655,48.978675842285156,79,217,76,77,59,76,92,71,1
656,48.99376606941223,77,210,81,75,61,73,91,73,1
657,49.01584792137146,76,217,84,73,61,75,94,73,1
658,49.03860831260681,74,208,81,69,53,64,95,72,1
659,49.05354189872742,65,211,83,72,47,62,86,80,1
660,49.07594633102417,63,220,85,72,38,55,73,66,1
661,49.108959674835205,63,219,82,71,35,56,75,64,1
662,49.112828969955444,75,274,110,80,48,70,110,91,1
663,49.135969400405884,75,271,109,99,49,77,110,91,1
664,49.15780544281006,65,271,110,97,50,75,124,87,1
665,49.17338848114014,72,261,113,89,54,83,128,98,1
666,49.195833921432495,71,257,114,87,54,84,131,99,1
667,49.21854376792908,60,203,90,77,42,68,104,77,1
668,49.23331332206726,64,235,105,53,44,58,105,78,1
669,49.25582456588745,67,251,109,56,47,61,89,77,1
670,49.27804708480835,55,264,115,59,42,55,89,59,1
671,49.29284358024597,58,263,114,57,41,53,90,56,1
672,49.31599235534668,62,270,116,60,42,59,94,57,1
673,49.33835196495056,58,244,103,58,39,61,97,57,1
674,49.360392570495605,53,217,97,54,31,57,97,53,1
675,49.37677836418152,59,237,101,55,33,59,98,57,1
676,49.39847469329834,64,248,101,61,36,58,90,60,1
677,49.42101240158081,63,226,91,68,35,52,85,58,1
678,49.43580627441406,64,212,85,69,33,49,69,55,1
679,49.458667516708374,66,212,83,68,34,53,64,58,1
680,49.481568574905396,64,182,73,75,42,48,93,70,1
681,49.49553442001343,61,163,71,72,39,48,97,70,1
682,49.51830983161926,54,190,78,67,44,55,99,67,1
683,49.63858699798584,70,292,89,87,48,75,105,93,1
684,49.66100025177002,81,309,84,91,49,86,116,85,1
685,49.67590379714966,82,310,87,89,50,82,115,81,1
686,49.706592082977295,75,246,79,79,49,74,118,73,1
687,49.72154641151428,78,252,78,78,51,76,123,78,1
688,49.735965967178345,71,284,92,87,50,73,104,64,1
689,49.75791096687317,51,206,86,65,47,59,86,59,1
690,49.780630350112915,48,212,84,71,47,58,86,60,1
691,49.795814514160156,48,216,86,69,44,56,89,58,1
692,49.81846380233765,46,210,85,72,43,55,80,58,1
693,49.84908866882324,49,176,59,63,37,53,73,58,1
694,49.85603737831116,58,191,57,72,37,58,73,58,1
695,49.87839078903198,65,190,65,69,39,62,72,52,1
696,49.90133833885193,65,184,62,72,47,67,61,53,1
697,49.91591811180115,66,182,71,69,48,67,70,49,1
698,49.93857288360596,69,240,93,73,50,69,78,53,1
699,49.960999965667725,64,236,93,67,48,62,78,54,1
700,49.97601628303528,58,259,94,68,49,64,89,64,1
701,49.99891901016235,66,348,124,86,47,67,121,87,1
702,50.17807364463806,108,595,231,162,82,111,215,142,1
703,50.20121479034424,97,403,149,107,62,93,173,121,1
704,50.21600031852722,95,373,140,95,60,87,166,119,1
705,50.23847246170044,106,422,161,109,61,96,163,120,1
706,50.26087427139282,101,361,145,101,67,97,167,109,1
707,50.28357410430908,99,351,148,103,70,87,164,105,1
708,50.29836177825928,100,358,152,114,70,89,153,101,1
709,50.320961236953735,95,367,154,114,72,91,154,102,1
710,50.34423470497131,85,308,133,102,70,90,155,112,1
711,50.3581166267395,75,289,120,94,68,79,122,113,1
712,50.3804190158844,69,275,101,78,56,70,82,89,1
713,50.40299940109253,69,300,102,73,57,69,90,94,1
714,50.418490171432495,76,317,113,89,60,103,107,100,1
715,50.441696882247925,79,331,120,104,62,98,116,100,1
716,50.463276386260986,97,429,147,129,59,120,131,102,1
717,50.478352308273315,97,399,142,135,67,131,151,113,1
718,50.50070238113403,108,409,144,134,67,133,149,110,1
719,50.52322483062744,107,448,147,142,75,113,185,108,1
720,50.53832459449768,105,454,142,139,76,121,206,135,1
721,50.560888051986694,93,419,135,140,78,101,246,137,1
722,50.58348035812378,124,441,138,139,76,96,257,150,1
723,50.598233461380005,130,529,168,147,81,115,286,162,1
724,50.62111496925354,132,480,157,128,69,110,267,160,1
725,50.64380693435669,135,570,186,136,81,126,290,134,1
726,50.65835905075073,129,529,169,115,79,125,253,130,1
727,50.682127952575684,100,562,175,131,83,140,239,103,1
728,50.70339894294739,77,520,162,131,85,128,218,108,1
729,50.71852254867554,71,544,169,143,87,129,224,126,1
730,50.740949630737305,80,438,136,127,80,106,179,126,1
731,50.763458251953125,104,462,148,130,80,111,189,131,1
732,50.778438568115234,105,409,138,110,75,84,184,136,1
733,50.80135679244995,106,326,115,97,68,80,173,121,1
734,50.82404375076294,109,327,111,99,66,99,171,103,1
735,50.838589906692505,99,344,116,107,59,98,184,109,1
736,50.860464334487915,75,319,102,99,56,94,170,102,1
737,50.88355827331543,77,385,129,102,51,97,170,111,1
738,50.89826464653015,72,384,128,104,48,94,174,110,1
739,50.92094445228577,94,395,134,96,46,81,164,114,1
740,50.94290089607239,95,378,136,86,55,85,191,116,1
741,50.95791172981262,96,373,134,95,55,84,191,115,1
742,50.98141574859619,89,310,122,109,71,95,208,121,1
743,51.00345158576965,93,334,129,120,72,93,204,117,1
744,51.01847743988037,90,339,135,126,80,107,210,118,1
745,51.04164361953735,87,332,130,127,78,102,185,107,1
746,51.063284397125244,85,325,131,121,76,100,188,104,1
747,51.078208208084106,94,319,124,114,63,99,182,89,1
748,51.10072708129883,108,306,123,98,67,98,178,109,1
749,51.12326788902283,96,289,114,91,67,86,165,111,1
750,51.13822078704834,100,293,110,91,66,95,137,107,1
751,51.160890102386475,100,289,107,90,64,93,133,108,1
752,51.183260917663574,104,359,111,106,63,86,127,109,1
753,51.19831085205078,88,344,104,109,60,87,146,89,1
754,51.22089123725891,83,302,92,103,51,79,148,77,1
755,51.24341154098511,79,297,91,103,50,64,144,76,1
756,51.26600241661072,82,330,108,113,51,72,157,78,1
757,51.28073787689209,68,233,88,91,49,56,145,67,1
758,51.303466796875,69,233,87,83,47,53,124,66,1
759,51.32640337944031,69,280,107,103,56,59,147,74,1
760,51.34039807319641,71,298,108,107,56,60,163,84,1
761,51.3637170791626,66,260,92,99,54,51,145,81,1
762,51.38695240020752,75,301,105,102,61,58,161,82,1
763,51.40071177482605,77,309,107,115,60,61,160,81,1
764,51.423434019088745,73,265,87,99,51,56,137,73,1
765,51.44586730003357,71,231,78,89,51,54,117,57,1
766,51.460906744003296,78,240,80,88,52,61,129,67,1
767,51.483176708221436,68,187,75,79,46,57,99,64,1
768,51.50564098358154,70,213,79,60,47,59,105,70,1
769,51.52073049545288,70,215,79,50,44,55,108,71,1
770,51.78364324569702,89,191,73,76,40,55,111,91,1
771,51.80586576461792,95,214,76,78,43,54,126,105,1
772,51.821444034576416,80,190,81,73,41,55,141,95,1
773,51.84397578239441,82,185,80,72,40,52,141,94,1
774,51.86578631401062,82,182,76,63,39,55,145,98,1
775,51.88019037246704,76,211,74,58,42,55,139,96,1
776,51.90361499786377,68,199,67,55,42,59,128,82,1
777,51.92530536651611,69,215,67,58,46,65,118,81,1
778,51.94043207168579,70,252,83,72,57,72,110,89,1
779,51.96270728111267,80,263,87,73,57,79,127,92,1
780,51.98605537414551,78,236,87,71,53,77,118,84,1
781,52.000932693481445,79,231,87,68,54,81,123,82,1
782,52.023298263549805,82,236,90,72,54,77,116,88,1
783,52.1208918094635,71,259,106,68,45,57,110,60,1
784,52.14335227012634,63,236,92,61,50,65,115,61,1
785,52.165223121643066,69,252,102,65,57,58,132,81,1
786,52.18879294395447,67,268,109,79,55,60,147,83,1
787,52.202887296676636,68,251,97,82,55,58,138,80,1
788,52.226537466049194,75,226,86,86,56,68,138,96,1
789,52.248597860336304,80,214,87,87,56,63,150,100,1
790,52.26325511932373,74,177,74,83,50,65,127,89,1
791,52.285839319229126,85,180,77,76,56,70,117,108,1
792,52.309123277664185,85,251,94,76,57,76,143,113,1
793,52.3232479095459,79,247,95,66,55,68,137,97,1
794,52.34570503234863,71,256,99,57,52,63,116,90,1
795,52.36909747123718,70,256,101,61,53,66,125,87,1
796,52.382806062698364,81,273,105,65,48,60,137,70,1
797,52.40613770484924,87,226,92,65,44,55,112,66,1
798,52.429009675979614,88,240,97,73,48,55,115,77,1
799,52.44320368766785,98,266,99,83,48,60,121,92,1
800,53.44897818565369,139,626,264,186,86,111,403,203,1
801,53.47231388092041,134,544,221,166,87,121,318,202,1
802,53.48541712760925,134,560,223,175,95,139,363,218,1
803,53.50832676887512,124,502,203,166,91,149,345,203,1
804,53.53157687187195,125,490,199,165,87,149,322,199,1
805,53.545169830322266,148,467,185,145,84,147,334,187,1
806,53.5689537525177,148,472,184,145,84,148,337,184,1
807,53.591437339782715,152,463,182,144,81,135,303,190,1
808,53.6051390171051,154,456,176,144,80,132,297,178,1
809,53.629679918289185,164,438,177,124,76,125,334,200,1
810,53.651214838027954,153,377,152,124,74,138,334,193,1
811,53.665401458740234,151,412,167,140,73,131,322,191,1
812,53.689016819000244,141,427,167,141,65,129,339,168,1
813,53.711899757385254,147,446,196,149,76,121,345,193,1
814,53.72663497924805,134,417,180,147,73,108,313,183,1
815,53.74883961677551,133,466,208,155,74,88,328,192,1
816,53.77093482017517,130,434,196,156,75,83,324,188,1
817,53.785977602005005,119,442,193,154,74,83,307,189,1
818,53.80906963348389,109,411,157,139,64,77,280,169,1
819,53.83180594444275,103,432,177,148,76,81,278,163,1
820,53.846131801605225,92,375,148,136,73,80,245,162,1
821,53.86933088302612,100,349,147,119,76,94,277,164,1
822,53.89145469665527,106,278,133,106,78,87,248,161,1
823,53.905951499938965,102,333,144,117,77,97,255,167,1
824,53.92943048477173,108,331,124,115,68,99,239,158,1
825,53.951409101486206,104,414,152,127,71,111,219,127,1
826,53.965736865997314,99,425,152,122,67,102,193,128,1
827,53.9886257648468,94,429,152,116,61,100,205,129,1
828,54.0111722946167,95,395,146,112,62,97,221,122,1
829,54.02522826194763,99,441,160,109,58,109,246,133,1
830,54.056108236312866,110,417,166,126,64,110,261,148,1
831,54.07912611961365,122,463,179,134,67,113,319,146,1
832,54.09376072883606,124,455,178,135,69,117,313,144,1
833,54.10862731933594,123,453,177,132,65,120,310,134,1
834,54.13136959075928,120,406,163,139,68,110,298,130,1
835,54.15591835975647,113,359,128,117,64,100,296,126,1
836,54.168412923812866,100,291,103,107,61,96,218,127,1
837,54.19125008583069,95,286,99,105,59,93,210,129,1
838,54.21379899978638,100,386,136,134,73,102,194,135,1
839,54.22889447212219,95,395,144,122,69,95,215,122,1
840,54.25183057785034,83,434,157,117,68,93,209,125,1
841,54.274399757385254,75,458,164,125,69,94,227,134,1
842,54.28937482833862,77,468,171,130,75,94,227,139,1
843,54.31163787841797,71,397,148,112,64,83,243,140,1
844,54.33381509780884,71,363,137,115,65,82,248,144,1
845,54.34848880767822,73,281,110,106,59,80,243,127,1
846,54.371421813964844,73,274,104,100,50,82,221,115,1
847,54.39386057853699,68,274,98,101,50,86,237,118,1
848,54.40824294090271,71,315,99,93,52,82,212,116,1
849,54.43169713020325,66,329,103,87,53,90,192,121,1
850,54.45332193374634,70,340,112,88,58,86,176,113,1
851,54.46790361404419,95,386,123,93,72,96,177,128,1
852,54.490864515304565,97,399,138,92,67,106,229,129,1
853,54.513230323791504,92,350,129,91,65,105,235,122,1
854,54.528348207473755,95,344,124,95,64,96,221,115,1
855,54.550782203674316,106,373,135,96,61,98,250,122,1
856,54.57400178909302,91,310,119,91,53,84,244,107,1
857,54.58868479728699,95,316,104,88,52,67,180,101,1
858,54.611557722091675,94,328,114,87,56,66,169,102,1
859,54.634535789489746,101,350,124,94,60,66,186,100,1
860,54.64818239212036,88,313,117,95,64,77,170,95,1
861,54.672245502471924,89,317,124,106,68,85,206,95,1
862,54.69412159919739,82,276,119,103,69,82,203,88,1
863,54.71616840362549,88,285,114,105,68,95,222,103,1
864,54.731006145477295,88,272,104,100,69,105,225,111,1
865,54.753785610198975,92,268,93,98,67,102,217,108,1
866,54.76807880401611,91,231,84,80,64,94,213,112,1
867,54.79135298728943,95,251,98,85,69,98,230,116,1
868,54.81402802467346,114,281,109,94,71,97,239,119,1
869,54.829429626464844,114,269,111,88,67,96,236,114,1
870,54.85094165802002,106,259,110,84,63,90,231,110,1
871,54.87341284751892,100,267,114,92,63,96,259,111,1
872,54.88770842552185,96,256,106,91,58,97,279,112,1
873,54.91842579841614,67,232,97,84,54,85,264,101,1
874,54.93399620056152,67,258,101,86,55,76,268,106,1
875,54.94848370552063,78,321,120,107,64,77,286,131,1
876,54.97131538391113,83,314,114,108,60,75,236,128,1
877,54.9939239025116,93,316,113,106,65,80,199,139,1
878,55.01653027534485,101,333,114,101,64,87,204,142,1
879,55.031264305114746,93,376,130,106,64,84,193,142,1
880,55.05504083633423,87,335,120,90,61,87,153,120,1
881,55.07658243179321,89,353,119,83,60,82,162,119,1
882,55.090831995010376,81,425,141,99,60,80,231,137,1
883,55.11350965499878,71,401,140,96,58,72,218,126,1
884,55.137081146240234,67,334,119,86,55,78,212,121,1
885,55.15138483047485,81,331,114,80,54,76,229,134,1
886,55.17409825325012,80,321,122,81,53,80,232,136,1
887,55.19694638252258,76,221,93,63,45,75,162,101,1
888,55.211445569992065,76,221,100,71,51,74,184,102,1
889,55.23400640487671,84,224,98,69,51,67,184,102,1
890,55.25582528114319,76,232,103,79,50,65,176,117,1
891,55.27069139480591,73,301,121,90,53,64,198,114,1
892,55.29344153404236,79,296,124,91,53,58,202,116,1
893,55.31648850440979,80,280,113,89,48,59,174,119,1
894,55.33072304725647,81,317,120,94,49,66,180,120,1
895,55.35374712944031,78,313,122,90,46,63,182,98,1
896,55.376524448394775,77,263,103,90,55,60,148,90,1
897,55.391685247421265,75,266,101,89,59,61,142,88,1
898,55.413294315338135,80,289,113,94,61,68,153,84,1
899,55.43575572967529,77,244,105,95,68,77,144,84,1
900,55.45165824890137,73,233,97,101,71,85,163,89,1
901,55.473771810531616,80,219,102,90,61,103,177,106,1
902,55.49653458595276,79,230,108,92,60,107,178,116,1
903,55.510770082473755,71,186,94,84,58,100,168,119,1
904,55.53453493118286,81,195,95,81,50,91,164,119,1
905,55.55586552619934,81,236,100,87,43,90,156,110,1
906,55.57002782821655,80,220,82,86,42,64,136,97,1
907,55.59376645088196,78,218,75,89,40,61,136,84,1
908,55.616559982299805,82,267,89,119,46,79,141,86,1
909,55.630492210388184,75,271,97,127,47,81,141,77,1
910,55.661335468292236,73,234,88,116,45,79,112,73,1
911,55.678367614746094,66,283,110,113,49,88,127,69,1
912,55.68999481201172,78,286,112,115,49,87,118,72,1
913,55.713873863220215,75,252,106,87,43,83,146,74,1
914,55.7433876991272,76,275,109,76,46,85,180,75,1
915,55.750344038009644,78,364,134,96,52,91,205,82,1
916,55.7731568813324,89,380,133,120,72,98,194,82,1
917,55.79688048362732,78,369,130,115,73,99,192,74,1
918,55.810803174972534,77,367,129,114,72,91,169,64,1
919,55.83384680747986,87,346,121,112,69,92,129,63,1
920,55.85669255256653,98,262,101,107,71,86,109,76,1
921,55.87142872810364,88,181,81,82,53,69,110,77,1
922,55.8939323425293,93,186,76,79,54,67,111,81,1
923,55.91700768470764,101,234,83,98,60,92,123,95,1
924,55.93110013008118,86,233,85,98,62,85,124,109,1
925,55.95402765274048,81,238,82,98,57,85,108,99,1
926,55.97612142562866,80,247,81,103,55,89,113,98,1
927,55.99843120574951,79,235,85,103,51,87,125,95,1
928,56.013240575790405,74,196,80,91,53,70,115,92,1
929,56.036240339279175,87,228,92,116,58,85,119,86,1
930,56.0587899684906,83,214,89,113,59,87,111,82,1
931,56.07372784614563,83,191,86,108,57,82,103,81,1
932,56.09633231163025,78,192,82,107,58,81,87,83,1
933,56.118900299072266,74,229,107,105,59,79,121,88,1
934,56.13416314125061,64,199,96,82,51,68,111,80,1
935,56.15650939941406,61,195,93,74,49,61,112,78,1
936,56.179152727127075,75,212,93,79,54,61,112,81,1
937,56.19416093826294,77,222,94,84,52,65,123,83,1
938,56.2157416343689,77,187,66,79,47,64,102,71,1
939,56.239282846450806,72,173,60,71,45,58,99,65,1
940,56.25367712974548,82,185,66,78,47,58,104,67,1
941,56.27575731277466,67,178,73,68,43,58,116,70,1
942,56.30005145072937,65,177,77,67,47,55,108,74,1
943,56.3139214515686,62,156,69,65,43,44,93,71,1
944,56.33579230308533,79,215,86,93,45,57,103,75,1
945,56.35798978805542,69,207,82,83,41,60,103,77,1
946,56.373955488204956,71,200,77,83,42,60,89,70,1
947,56.397154808044434,77,227,93,82,43,66,105,72,1
948,56.4189977645874,81,247,96,88,47,86,123,77,1
949,56.43326544761658,70,206,81,58,43,77,116,77,1
950,56.455838441848755,71,252,105,68,52,84,113,82,1
951,56.478691816329956,71,261,108,73,53,84,116,87,1
952,56.49316644668579,64,233,90,71,51,80,104,78,1
953,56.51658034324646,57,212,87,64,49,60,82,73,1
954,56.53904128074646,56,244,90,74,51,73,104,79,1
955,56.55386734008789,50,206,66,68,47,62,114,77,1
956,56.576212644577026,48,213,61,62,44,62,109,77,1
957,56.59855914115906,54,214,62,63,41,65,103,74,1
958,56.61256289482117,57,314,88,75,42,78,105,85,1
959,56.64385938644409,54,289,84,69,43,70,93,79,1
960,56.65876030921936,62,298,86,67,41,71,78,72,1
961,56.67308187484741,62,293,88,69,42,72,80,68,1
962,56.69630551338196,62,301,90,74,44,71,87,70,1
963,56.72064781188965,72,234,75,81,43,63,93,66,1
964,56.73324728012085,79,248,79,81,40,68,97,63,1
965,56.755958795547485,75,257,88,88,42,67,96,66,1
966,56.77821373939514,77,254,89,87,44,65,98,79,1
967,56.79319739341736,82,248,89,84,46,61,91,76,1
968,56.818130016326904,86,246,94,78,47,59,87,73,1
969,56.83804702758789,82,267,102,81,51,55,81,95,1
970,56.8599967956543,80,237,93,80,52,57,78,91,1
971,56.878056049346924,77,227,89,82,53,57,72,80,1
972,56.89795136451721,74,290,111,91,51,70,88,86,1
973,56.922542572021484,62,284,111,86,54,67,108,117,1
974,56.94014573097229,57,259,102,82,50,65,100,100,1
975,56.958223819732666,58,265,102,74,44,63,106,104,1
976,56.981606006622314,69,269,104,71,42,66,115,102,1
977,56.99722909927368,74,234,87,68,41,72,126,110,1
978,57.01806449890137,80,243,79,78,38,77,114,73,1
979,57.040571212768555,80,235,80,75,37,75,112,74,1
980,57.062732219696045,82,225,79,77,47,75,108,72,1
981,57.07808566093445,73,237,79,80,47,77,102,76,1
982,57.10108041763306,69,201,74,71,49,62,77,62,1
983,57.11744785308838,56,152,64,55,46,55,60,62,1
984,57.13773536682129,59,227,79,62,52,71,63,64,1
985,57.16823482513428,62,236,83,75,49,77,82,70,1
986,57.177868127822876,67,287,90,89,54,97,100,68,1
987,57.20013666152954,58,293,88,89,54,96,103,63,1
988,57.220818281173706,57,295,89,89,54,97,108,61,1
989,57.23767447471619,58,248,81,83,52,87,130,65,1
990,57.2610719203949,60,260,77,74,52,85,127,68,1
991,57.28059697151184,53,208,74,60,45,66,116,74,1
992,57.29969024658203,57,198,70,60,42,63,114,78,1
993,57.31760263442993,63,202,70,59,46,67,124,88,1
994,57.340039014816284,64,254,92,73,50,68,112,88,1
995,57.363303899765015,60,240,93,73,46,66,104,81,1
996,57.380826234817505,62,220,88,66,47,58,98,78,1
997,57.40011811256409,62,214,89,64,47,58,96,72,1
998,57.41679787635803,59,240,95,67,46,58,83,60,1
999,57.43757677078247,56,175,70,50,44,57,71,57,1
1000,57.46091079711914,55,192,69,47,45,58,74,55,1
1001,57.47771430015564,55,195,66,46,44,58,73,48,1
1002,57.49807119369507,52,238,84,53,45,59,74,59,1
1003,57.52049231529236,50,206,77,54,42,54,67,59,1
1004,57.53857207298279,49,207,73,57,39,55,63,51,1
1005,57.55776381492615,49,224,82,56,42,62,60,73,1
1006,57.58172869682312,45,235,88,64,46,61,57,74,1
1007,57.597620725631714,46,193,70,62,45,60,54,69,1
1008,57.61831331253052,49,214,76,62,46,60,60,73,1
1009,57.64101433753967,51,215,79,61,46,61,71,92,1
1010,57.65883445739746,54,177,71,63,46,58,66,81,1
1011,57.67808723449707,57,201,70,63,45,59,75,85,1
1012,57.708054542541504,60,199,72,59,47,60,73,82,1
1013,57.71756315231323,58,176,65,54,45,61,70,80,1
1014,57.73797869682312,59,178,67,55,44,59,70,60,1
1015,57.75994515419006,50,177,62,52,40,54,73,54,1
1016,57.777536153793335,49,154,59,43,36,51,66,52,1
1017,57.79822397232056,50,159,62,46,33,51,75,57,1
1018,57.82087850570679,52,177,67,52,39,50,81,59,1
1019,57.83787512779236,54,183,68,59,41,49,70,64,1
1020,57.85846829414368,61,222,76,62,37,49,73,68,1
1021,57.88058543205261,63,201,72,63,38,47,72,62,1
1022,57.902976989746094,60,220,74,63,41,47,62,62,1
1023,57.9184844493866,60,217,72,62,33,46,54,62,1
1024,57.940757036209106,58,213,71,54,39,51,73,59,1
1025,57.96320962905884,53,178,62,51,42,47,65,56,1
1026,57.977494955062866,48,182,59,49,41,50,65,56,1
1027,58.00002121925354,61,227,78,48,44,53,71,59,1
1028,58.031047105789185,60,247,82,50,45,57,70,57,1
1029,58.037577629089355,57,239,79,48,38,49,50,55,1
1030,58.06027340888977,55,230,79,47,40,48,51,53,1
1031,58.08317542076111,60,250,85,59,44,53,66,59,1
1032,58.09816074371338,49,192,66,60,45,54,65,60,1
1033,58.12098670005798,49,155,61,57,49,54,68,61,1
1034,58.1431086063385,49,148,60,58,50,55,66,59,1
1035,58.15788125991821,49,166,62,58,47,56,76,63,1
1036,58.180713415145874,50,209,72,55,47,55,69,61,1
1037,58.20306158065796,55,222,76,55,46,53,68,54,1
1038,58.21996212005615,59,221,74,53,40,51,69,52,1
1039,58.241111516952515,59,233,76,54,46,51,71,52,1
1040,58.262688875198364,63,231,80,57,49,54,79,53,1
1041,58.28032088279724,60,190,72,59,51,56,77,58,1
1042,58.300390005111694,52,165,62,55,47,52,76,56,1
1043,58.322973012924194,47,161,62,52,47,49,75,57,1
1044,58.34556579589844,52,228,75,57,41,58,82,68,1
1045,58.36061143875122,47,232,76,60,38,59,72,61,1
1046,58.38342595100403,46,215,70,48,32,53,71,53,1
1047,58.39810085296631,52,225,71,47,32,55,71,56,1
1048,58.420544385910034,51,228,72,49,40,58,70,64,1
1049,58.442646503448486,51,159,60,44,40,53,69,57,1
1050,58.46072697639465,50,242,88,66,43,62,74,70,1
1051,58.480515003204346,50,248,88,69,48,63,77,70,1
1052,58.50297427177429,45,242,89,71,48,61,75,68,1
1053,58.52017951011658,47,253,90,71,46,62,73,59,1
1054,58.54052138328552,43,253,90,74,47,58,64,56,1
1055,58.56361985206604,41,169,57,53,44,47,43,41,1
1056,58.585577726364136,52,165,62,55,47,52,76,56,1
1057,58.589447259902954,47,161,62,52,47,49,75,57,1
1058,58.76539325714111,40,210,71,50,43,54,63,55,1
1059,58.780858278274536,49,228,68,56,44,58,68,54,1
1060,58.80295014381409,50,162,44,48,40,50,54,48,1
1061,58.82015776634216,52,166,44,47,40,46,53,49,1
1062,59.10302996635437,52,227,73,65,46,53,43,69,1
1063,59.12564253807068,52,238,74,67,48,54,44,71,1
1064,59.14046812057495,51,233,69,66,47,53,42,74,1
1065,59.162476778030396,55,289,94,80,43,53,47,71,1
1066,59.28246569633484,120,304,107,82,54,81,147,122,1
1067,59.30497670173645,122,265,107,92,55,85,156,121,1
1068,59.322784185409546,122,251,106,86,54,82,159,124,1
1069,59.34293794631958,119,256,111,85,56,84,158,136,1
1070,59.365498304367065,106,242,103,87,56,84,164,134,1
1071,59.38035750389099,84,396,117,90,51,84,156,131,1
1072,59.40378546714783,123,486,145,113,69,91,182,136,1
1073,59.42685580253601,126,516,155,123,72,103,216,149,1
1074,59.44062948226929,136,594,181,149,85,107,269,157,1
1075,59.463857889175415,148,603,189,156,99,105,285,164,1
1076,59.486098766326904,155,519,180,161,101,115,312,176,1
1077,59.501282930374146,122,437,159,141,90,109,289,173,1
1078,59.52305746078491,124,438,161,140,88,105,277,163,1
1079,59.54549288749695,109,341,135,120,78,98,229,146,1
1080,59.56051564216614,99,389,149,119,63,105,231,139,1
1081,59.58287978172302,83,441,160,111,60,88,220,107,1
1082,59.60550379753113,96,452,164,108,58,83,233,105,1
1083,59.620646953582764,91,430,152,102,57,71,213,117,1
1084,59.64324402809143,94,425,145,101,54,79,234,118,1
1085,59.665674448013306,98,407,129,94,53,71,219,121,1
1086,59.680771827697754,106,325,97,83,51,78,200,125,1
1087,59.70313620567322,90,320,87,88,50,80,190,121,1
1088,59.72598075866699,91,305,91,93,52,87,196,100,1
1089,59.740530490875244,91,365,108,112,58,80,170,95,1
1090,59.76436996459961,82,325,101,116,54,75,162,79,1
1091,59.785821199417114,69,292,95,108,49,59,144,68,1
1092,59.80800747871399,76,397,187,151,90,81,246,176,1
1093,59.82373833656311,74,413,191,158,93,77,260,181,1
1094,59.844905853271484,72,367,187,150,96,88,251,187,1
1095,59.86793541908264,67,369,190,147,98,89,249,189,1
1096,59.88358950614929,80,386,196,152,101,97,274,196,1
1097,59.90525770187378,93,280,121,107,72,95,204,130,1
1098,59.92788124084473,101,254,109,89,71,93,181,125,1
1099,59.94497990608215,100,223,98,69,60,83,177,113,1
1100,59.96542191505432,103,212,91,65,62,84,183,119,1
1101,59.98796486854553,95,196,86,60,63,75,159,114,1
1102,60.003029346466064,81,166,71,59,57,55,132,86,1
1103,60.02535581588745,68,179,77,57,56,62,132,87,1
1104,61.21072483062744,104,370,130,132,50,96,205,124,1
1105,61.225900411605835,103,370,125,125,49,98,212,125,1
1106,61.24868869781494,84,357,116,120,52,98,209,120,1
1107,61.27033567428589,74,417,132,120,66,99,235,120,1
1108,61.285515785217285,69,310,113,81,63,89,199,111,1
1109,61.307618618011475,66,300,112,77,62,88,183,100,1
1110,61.330909967422485,67,283,108,74,61,87,183,94,1
1111,61.34613609313965,81,311,120,75,59,90,182,87,1
1112,61.36784076690674,78,218,93,57,39,79,143,93,1
1113,61.39039969444275,75,206,82,54,40,68,129,87,1
1114,61.405431032180786,95,271,105,66,46,72,170,113,1
1115,61.42797565460205,98,335,121,75,44,75,184,118,1
1116,61.450374603271484,90,317,114,78,44,70,181,117,1
1117,61.473002433776855,94,319,116,82,45,69,178,109,1
1118,61.487640619277954,107,370,144,104,51,100,193,132,1
1119,61.50995707511902,93,337,132,100,48,99,160,112,1
1120,61.524874687194824,87,274,117,91,46,93,134,105,1
1121,61.547988414764404,88,335,134,92,48,103,159,110,1
1122,61.5704460144043,94,358,146,95,51,102,160,113,1
1123,61.5937237739563,75,315,127,77,43,71,140,86,1
1124,61.608176469802856,75,365,142,82,40,71,148,83,1
1125,61.63052701950073,77,371,146,85,47,67,155,82,1
1126,61.64548373222351,73,299,128,79,45,55,132,73,1
1127,61.66764521598816,69,372,163,115,57,78,135,85,1
1128,61.69012236595154,76,374,162,120,58,80,134,86,1
1129,61.71304202079773,82,320,147,116,59,80,129,86,1
1130,61.72790002822876,87,312,144,113,53,83,115,86,1
1131,61.75015044212341,88,342,155,124,61,84,168,124,1
1132,61.77436304092407,84,225,98,97,47,63,186,115,1
1133,61.7884247303009,82,236,110,92,48,61,191,115,1
1134,61.81332015991211,72,233,110,90,48,60,191,114,1
1135,61.83359503746033,87,320,131,103,55,66,208,130,1
1136,61.8480064868927,83,290,117,95,44,62,163,91,1
1137,61.870447397232056,91,306,120,91,44,68,134,87,1
1138,61.89464354515076,88,286,105,87,43,68,125,84,1
1139,61.90741991996765,94,287,102,98,46,72,129,88,1
1140,61.93021059036255,75,206,80,90,41,63,103,61,1
1141,61.9532265663147,78,226,89,83,46,65,100,85,1
1142,61.96785044670105,71,268,97,92,46,70,106,103,1
1143,61.99033498764038,75,282,103,89,53,77,143,122,1
1144,62.01297664642334,67,280,102,78,50,75,137,119,1
1145,62.027915954589844,69,264,93,71,49,77,135,120,1
1146,62.050448179244995,98,305,104,92,51,112,158,112,1
1147,62.07323622703552,97,250,95,82,53,108,158,96,1
1148,62.088581562042236,94,239,89,85,49,105,124,72,1
1149,62.1097354888916,95,234,88,84,49,104,122,74,1
1150,62.13376522064209,117,292,104,101,64,111,134,97,1
1151,62.14806842803955,93,225,85,92,61,75,112,95,1
1152,62.169912815093994,95,245,84,92,62,74,108,99,1
1153,62.19496393203735,96,235,81,89,61,70,104,98,1
1154,62.20845079421997,96,253,85,95,60,69,120,101,1
1155,62.230220079422,82,197,69,81,49,59,117,80,1
1156,62.25303769111633,86,199,70,69,49,63,114,83,1
1157,62.26790976524353,79,196,68,66,47,65,110,77,1
1158,62.29052925109863,76,201,74,66,47,65,113,83,1
1159,62.31359076499939,73,183,70,56,46,64,104,75,1
1160,62.328129529953,57,232,92,63,48,68,87,98,1
1161,62.35090088844299,63,256,98,74,52,79,103,99,1
1162,62.37333106994629,69,254,101,66,49,78,119,102,1
1163,62.38717484474182,70,261,101,71,49,81,119,97,1
1164,62.41048574447632,75,266,102,74,52,80,111,98,1
1165,62.43319225311279,73,237,88,70,48,76,129,81,1
1166,62.44781947135925,67,219,81,69,44,82,137,76,1
1167,62.47028875350952,70,271,86,92,57,91,127,91,1
1168,62.49375534057617,69,269,82,92,56,89,126,93,1
1169,62.50808310508728,68,262,81,89,55,89,125,93,1
1170,62.52981376647949,79,295,82,115,66,112,128,95,1
1171,62.552247524261475,75,290,79,111,64,100,109,105,1
1172,62.56841015815735,67,224,65,99,56,97,101,85,1
1173,62.59048128128052,65,218,63,99,56,98,100,91,1
1174,62.61300539970398,84,219,66,102,73,102,112,111,1
1175,62.63611650466919,76,208,86,77,65,82,93,116,1
1176,62.65039682388306,79,204,89,72,65,77,81,107,1
1177,62.67280983924866,82,220,91,67,61,64,81,108,1
1178,62.696720600128174,86,224,93,65,62,64,91,103,1
1179,62.71025109291077,82,231,94,65,41,67,114,91,1
1180,62.73319172859192,80,185,69,57,40,63,111,78,1
1181,62.75675082206726,78,182,65,61,41,63,114,76,1
1182,62.770275831222534,77,180,72,67,48,70,128,83,1
1183,62.79281711578369,72,178,71,65,47,68,127,80,1
1184,62.81604480743408,52,163,67,68,47,66,102,79,1
1185,62.83029866218567,56,167,70,73,45,65,104,84,1
1186,62.85221195220947,56,181,73,73,47,72,123,93,1
1187,62.87650799751282,56,158,60,67,42,69,110,88,1
1188,62.89028334617615,62,163,62,70,44,71,109,91,1
1189,62.91300892829895,61,163,69,61,43,68,108,86,1
1190,62.93730044364929,57,157,65,55,44,68,116,80,1
1191,62.95004463195801,61,141,61,55,42,63,103,87,1
1192,62.972946643829346,60,170,72,60,47,62,114,84,1
1193,62.995511531829834,55,170,78,57,46,60,113,82,1
1194,63.01040863990784,61,190,87,67,48,61,106,92,1
1195,63.0329167842865,61,180,84,68,43,58,109,96,1
1196,63.056225538253784,56,217,88,68,48,63,107,85,1
1197,63.07042098045349,62,209,86,63,45,64,97,87,1
1198,63.0930061340332,69,207,82,66,46,66,99,87,1
1199,63.11601662635803,74,205,70,57,46,64,102,76,1
1200,63.13032102584839,72,203,69,56,47,62,89,74,1
1201,63.15225529670715,80,166,62,52,44,52,82,70,1
1202,63.17684245109558,78,154,58,54,42,51,83,70,1
1203,63.191335678100586,79,188,64,64,42,56,96,70,1
1204,63.21308183670044,69,169,58,61,41,56,97,63,1
1205,63.2360725402832,70,185,59,66,40,67,114,54,1
1206,63.250208377838135,60,178,62,66,36,67,114,50,1
1207,63.27224779129028,60,186,66,63,37,69,121,50,1
1208,63.29643249511719,66,213,60,73,39,67,115,62,1
1209,63.310075998306274,67,229,67,73,38,67,113,64,1
1210,63.33246660232544,69,246,69,69,39,61,100,68,1
1211,63.35546684265137,77,277,78,73,39,64,99,72,1
1212,63.37046551704407,73,269,73,70,36,59,87,69,1
1213,63.39284157752991,68,270,90,55,34,64,82,77,1
1214,63.41623377799988,74,278,95,58,34,62,87,83,1
1215,63.43111729621887,73,263,95,61,33,60,81,85,1
1216,63.45280385017395,63,234,88,58,33,57,87,81,1
1217,63.476272106170654,63,236,88,57,34,63,84,82,1
1218,63.489891052246094,66,179,65,48,31,51,88,68,1
1219,63.52134990692139,57,161,54,47,30,52,91,69,1
1220,63.53576374053955,57,183,59,44,32,55,89,66,1
1221,63.5521457195282,58,206,62,53,34,62,84,67,1
1222,63.572381258010864,61,206,59,54,34,57,84,69,1
1223,63.59721899032593,50,207,66,57,36,58,75,70,1
1224,63.618478775024414,49,194,65,56,35,56,63,60,1
1225,63.63286066055298,49,175,55,52,35,51,65,61,1
1226,63.65607213973999,52,239,66,62,36,52,72,66,1
1227,63.678969383239746,47,252,71,64,36,56,70,64,1
1228,63.69291949272156,45,249,66,62,36,56,64,58,1
1229,63.71721363067627,54,299,77,71,39,67,74,71,1
1230,63.73939299583435,53,319,88,83,36,77,85,71,1
1231,63.75224018096924,55,267,84,75,35,74,78,66,1
1232,63.77611804008484,54,250,78,74,35,70,80,66,1
1233,63.7987174987793,59,269,82,77,33,77,80,78,1
1234,63.81234049797058,54,221,75,76,33,73,83,67,1
1235,63.835691690444946,58,179,66,65,35,62,81,62,1
1236,63.85856223106384,51,174,62,62,36,62,80,71,1
1237,63.87278175354004,50,182,66,63,38,66,80,74,1
1238,63.896053314208984,54,171,69,68,42,63,80,64,1
1239,63.91852068901062,57,174,69,59,40,58,66,67,1
1240,63.93275451660156,56,226,78,66,41,59,57,68,1
1241,63.956480979919434,64,220,75,63,40,54,58,60,1
1242,63.97840166091919,65,223,70,64,41,61,64,57,1
1243,63.992862939834595,61,221,69,54,43,57,85,65,1
1244,64.01636672019958,55,252,76,69,51,57,91,65,1
1245,64.03854942321777,56,221,69,60,48,52,88,63,1
1246,64.05358266830444,51,219,69,60,47,53,89,62,1
1247,64.07615089416504,56,228,77,63,48,48,85,58,1
1248,64.09858131408691,55,231,81,68,47,57,81,49,1
1249,64.11294722557068,57,189,75,57,41,60,89,60,1
1250,64.1359269618988,51,167,70,53,43,62,90,56,1
1251,64.15925312042236,49,167,71,54,45,63,89,63,1
1252,64.17350053787231,45,157,71,51,41,57,89,65,1
1253,64.19764471054077,44,131,60,44,39,47,74,64,1
1254,64.2189769744873,40,157,60,40,36,43,58,52,1
1255,64.23285984992981,41,158,58,44,37,41,60,53,1
1256,64.25584578514099,55,163,59,51,39,43,70,49,1
1257,64.27812719345093,53,235,83,64,42,48,87,59,1
1258,64.29282140731812,54,245,85,72,42,50,84,58,1
1259,64.31563091278076,53,242,91,75,46,54,81,60,1
1260,64.33818078041077,57,252,92,76,47,61,83,63,1
1261,64.35217261314392,43,254,95,73,45,58,74,62,1
1262,64.37657165527344,59,186,66,64,47,54,55,52,1
1263,64.39810228347778,61,174,62,55,46,51,59,54,1
1264,64.41307663917542,63,227,66,54,46,54,64,65,1
1265,64.43643856048584,64,229,66,53,45,52,69,63,1
1266,64.45875453948975,67,226,62,52,42,54,73,63,1
1267,64.47293782234192,61,247,73,49,41,56,75,60,1
1268,64.49603199958801,58,251,76,56,42,61,74,63,1
1269,64.5186755657196,57,226,72,56,47,58,70,51,1
1270,64.54141473770142,52,228,70,58,48,55,80,54,1
1271,64.55557227134705,49,236,70,58,50,57,76,57,1
1272,64.57858347892761,44,231,72,57,47,56,74,61,1
1273,64.60062742233276,49,226,73,55,48,52,83,79,1
1274,64.6273901462555,48,182,62,49,43,47,84,78,1
1275,64.63844633102417,51,205,72,48,41,49,65,79,1
1276,64.66068196296692,58,194,73,45,40,48,66,77,1
1277,64.67700695991516,66,175,63,43,40,50,76,81,1
1278,64.69812679290771,66,186,64,40,38,51,75,60,1
1279,64.72819113731384,66,186,63,38,33,50,73,62,1
1280,64.73554635047913,68,136,52,35,34,52,71,58,1
1281,64.76557731628418,61,133,47,35,33,50,70,58,1
1282,64.78079509735107,48,153,48,52,32,48,64,76,1
1283,64.79568886756897,41,140,41,56,33,44,53,75,1
1284,64.81816482543945,42,138,41,57,34,42,55,73,1
1285,64.85019063949585,37,141,41,58,30,37,56,77,1
1286,64.85559344291687,46,183,55,71,35,46,61,76,1
1287,64.87894463539124,46,162,53,64,36,46,51,46,1
1288,64.9003791809082,49,169,57,62,37,49,52,45,1
1289,64.91606497764587,46,170,59,63,44,50,51,48,1
1290,64.93838262557983,50,178,60,64,47,50,72,52,1
1291,64.9607617855072,43,243,78,70,47,49,67,53,1
1292,64.97578167915344,42,241,79,70,50,49,69,53,1
1293,65.0060613155365,44,236,77,68,47,47,72,56,1
1294,65.02053737640381,44,237,79,69,46,47,71,53,1
1295,65.04292368888855,41,261,84,72,45,61,69,44,1
1296,65.05854105949402,43,172,63,59,44,58,68,47,1
1297,65.08052587509155,50,166,61,58,40,57,72,48,1
1298,65.09549641609192,51,171,60,56,40,56,67,48,1
1299,65.11852288246155,55,174,56,53,42,58,68,47,1
1300,65.1409649848938,58,157,52,52,41,49,53,45,1
1301,65.1557092666626,58,195,52,51,39,51,55,41,1
1302,65.17839694023132,52,199,51,48,40,49,46,40,1
1303,65.20082521438599,52,193,54,53,42,50,45,35,1
1304,65.21568059921265,56,190,53,53,35,47,51,41,1
1305,65.24581503868103,55,172,53,48,35,43,66,52,1
1306,65.26086568832397,53,122,52,41,38,47,75,55,1
1307,65.27478265762329,54,134,57,45,41,47,75,55,1
1308,65.29817223548889,52,131,52,38,39,46,77,58,1
1309,65.32109475135803,57,204,76,45,44,49,86,67,1
1310,65.34357023239136,54,200,73,52,46,47,73,64,1
1311,65.35838317871094,59,203,70,59,44,39,65,63,1
1312,65.38119626045227,60,191,66,57,40,41,65,63,1
1313,65.39546179771423,58,189,66,57,38,42,63,62,1
1314,65.68045091629028,43,197,58,61,36,37,53,39,1
1315,65.70356249809265,37,189,55,60,34,37,55,40,1
1316,65.71812415122986,39,208,61,62,34,37,55,43,1
1317,65.74129867553711,43,210,65,63,34,37,57,49,1
1318,65.76323509216309,42,141,56,37,30,34,56,46,1
1319,65.77852988243103,71,159,70,52,38,38,72,82,1
1320,65.80116820335388,73,221,86,68,43,52,81,88,1
1321,65.8234646320343,72,209,80,68,43,53,81,91,1
1322,65.83804678916931,88,245,91,81,46,69,89,99,1
1323,65.86131858825684,114,446,126,105,49,99,104,144,1
1324,65.88402986526489,112,505,142,127,47,113,160,166,1
1325,65.89860701560974,131,544,159,133,55,126,200,173,1
1326,65.92166996002197,139,578,173,142,61,140,214,189,1
1327,65.94507813453674,133,598,177,138,59,134,222,195,1
1328,65.95775032043457,141,488,166,125,67,117,270,181,1
1329,65.9826147556305,138,435,152,103,68,104,252,154,1
1330,66.00349950790405,123,366,128,92,63,86,222,142,1
1331,66.01760792732239,132,343,128,78,59,64,209,120,1
1332,66.04094314575195,142,324,134,85,70,66,204,108,1
1333,66.0635244846344,121,302,123,94,69,81,129,87,1
1334,66.07779622077942,116,278,116,87,68,81,102,77,1
1335,66.10223174095154,122,307,135,102,76,109,109,90,1
1336,66.12390804290771,109,301,123,124,77,114,121,89,1
1337,66.13766169548035,94,261,102,123,69,118,120,84,1
1338,66.16132664680481,88,254,101,113,61,111,116,78,1
1339,66.18346786499023,96,260,103,119,63,114,123,87,1
1340,66.19769644737244,88,211,72,102,51,86,116,77,1
1341,66.22114872932434,83,211,74,76,48,78,104,76,1
1342,66.2429895401001,82,242,94,80,52,80,108,84,1
1343,66.2570583820343,77,240,95,83,53,74,103,82,1
1344,66.28110146522522,63,242,91,76,47,80,111,84,1
1345,66.3110523223877,56,270,105,79,47,83,118,87,1
1346,66.31791257858276,59,307,130,99,53,79,131,99,1
1347,66.34101581573486,85,314,125,99,54,81,122,99,1
1348,66.36359143257141,84,318,124,97,53,82,123,96,1
1349,66.37813878059387,90,315,128,96,52,76,114,94,1
1350,66.40097784996033,99,327,124,107,59,87,140,95,1
1351,66.42339873313904,101,282,94,91,57,90,150,80,1
1352,66.44594645500183,79,237,79,80,49,78,148,71,1
1353,66.46033978462219,82,245,79,81,50,76,147,76,1
1354,66.48359322547913,77,279,86,87,60,94,167,67,1
1355,66.50620079040527,66,236,76,68,51,78,137,65,1
1356,66.5203845500946,56,215,74,60,47,78,121,65,1
1357,66.54364323616028,53,222,73,63,48,78,128,67,1
1358,66.5660309791565,49,213,72,60,47,79,136,60,1
1359,66.58109998703003,50,165,65,58,42,80,134,72,1
1360,66.60364890098572,62,206,73,61,40,80,133,65,1
1361,66.6261682510376,62,209,71,63,37,79,125,66,1
1362,66.64104628562927,64,205,71,61,40,80,122,65,1
1363,66.66399312019348,74,222,84,66,40,80,129,74,1
1364,66.68619203567505,74,281,90,68,33,53,97,71,1
1365,66.70046901702881,66,286,89,71,39,61,98,72,1
1366,66.72308707237244,66,278,86,68,45,59,95,72,1
1367,66.7463641166687,65,312,104,73,44,68,106,79,1
1368,66.7614254951477,53,300,93,68,43,68,85,74,1
1369,66.78362083435059,53,290,95,76,49,76,83,75,1
1370,66.80597138404846,51,303,114,80,47,72,86,89,1
1371,66.82020401954651,48,305,115,80,40,70,86,88,1
1372,66.84364867210388,53,273,107,74,44,61,77,82,1
1373,66.86617422103882,54,288,111,75,46,60,80,81,1
1374,66.88029503822327,53,258,102,71,49,49,84,70,1
1375,66.9110643863678,60,211,74,63,52,50,94,63,1
1376,66.92533826828003,62,209,71,63,54,52,94,61,1
1377,66.95103454589844,57,199,57,60,49,52,86,61,1
1378,66.96560502052307,61,232,61,67,49,71,103,62,1
1379,66.98522782325745,56,218,59,59,41,69,96,60,1
1380,67.00772976875305,52,212,59,59,34,66,94,57,1
1381,67.02509713172913,51,212,61,60,35,68,93,57,1
1382,67.04542446136475,51,212,62,63,36,67,93,54,1
1383,67.06766319274902,53,228,69,53,36,51,81,59,1
1384,67.08372592926025,52,227,68,47,36,50,80,61,1
1385,67.10529565811157,59,235,71,59,38,67,78,63,1
1386,67.12817621231079,60,242,72,61,38,67,78,64,1
1387,67.14509534835815,65,251,76,60,38,70,78,67,1
1388,67.165682554245,59,182,62,60,36,68,71,64,1
1389,67.19046068191528,66,198,75,64,38,73,90,69,1
1390,67.2054443359375,58,179,69,52,37,53,79,70,1
1391,67.2252471446991,58,164,66,47,34,48,78,72,1
1392,67.24881434440613,55,164,66,47,34,46,79,69,1
1393,67.26455497741699,59,161,66,47,32,46,100,86,1
1394,67.2892587184906,57,138,59,47,36,42,88,85,1
1395,67.30802583694458,55,136,58,47,37,42,85,77,1
1396,67.32394599914551,61,154,65,47,40,50,100,75,1
1397,67.34537291526794,65,165,66,49,42,55,109,81,1
1398,67.36809182167053,62,171,69,50,42,51,90,59,1
1399,67.38660287857056,60,158,62,46,37,46,86,55,1
1400,67.40534591674805,63,172,67,44,34,50,89,56,1
1401,67.42807722091675,67,186,70,48,30,50,79,59,1
1402,67.44556069374084,65,172,67,45,31,47,66,52,1
1403,67.46517324447632,63,159,61,42,32,48,61,52,1
1404,67.48776507377625,67,166,63,48,37,53,59,56,1
1405,67.50596499443054,70,157,59,54,41,57,72,58,1
1406,67.52528190612793,60,135,50,49,45,54,78,63,1
1407,67.54787683486938,61,143,49,53,43,59,80,68,1
1408,67.56573629379272,61,137,46,53,42,57,81,69,1
1409,67.58469271659851,58,130,43,44,39,55,97,65,1
1410,67.60840606689453,54,143,43,38,38,54,104,63,1
1411,67.6252076625824,62,160,51,44,35,59,95,63,1
1412,67.644704580307,66,151,53,50,41,63,95,64,1
1413,67.66749548912048,66,155,55,53,41,64,95,66,1
1414,67.68479609489441,63,164,53,55,40,63,79,64,1
1415,67.70583200454712,65,183,61,65,40,70,73,67,1
1416,67.72731971740723,61,187,72,65,39,64,75,60,1
1417,67.74420714378357,52,190,74,60,35,56,73,52,1
1418,67.76472020149231,53,192,76,58,36,60,78,53,1
1419,67.78754806518555,52,185,77,58,34,58,77,56,1
1420,67.80475759506226,52,177,85,55,40,54,70,53,1
1421,67.8261775970459,53,148,69,56,38,57,70,57,1
1422,67.84724879264832,54,140,63,53,37,54,67,57,1
1423,67.86394000053406,55,134,61,54,39,49,63,52,1
1424,67.88586020469666,65,161,72,61,44,58,78,59,1
1425,67.90837454795837,60,145,58,57,35,52,67,57,1
1426,67.9272985458374,64,169,63,57,40,51,62,57,1
1427,67.9452395439148,63,173,65,58,41,52,65,56,1
1428,67.96720623970032,63,174,65,63,39,59,68,56,1
1429,67.98436069488525,53,160,60,59,37,54,60,48,1
1430,68.00520586967468,54,158,59,57,40,53,72,53,1
1431,68.02734541893005,53,132,54,55,36,58,75,55,1
1432,68.04568576812744,53,130,53,54,36,60,74,56,1
1433,68.06481695175171,56,171,56,54,42,59,78,59,1
1434,68.08737230300903,59,171,53,56,42,58,85,68,1
1435,68.10355830192566,65,163,54,55,40,56,78,66,1
1436,68.12611770629883,64,164,58,50,42,48,84,62,1
1437,68.1476697921753,65,164,61,49,41,44,84,64,1
1438,68.16414713859558,61,133,67,43,38,37,90,62,1
1439,68.18488574028015,65,166,63,58,35,41,82,59,1
1440,68.20758748054504,58,174,68,65,39,42,83,57,1
1441,68.22463178634644,51,171,65,66,40,43,76,56,1
1442,68.24622750282288,53,184,68,68,39,49,85,62,1
1443,68.26710987091064,55,183,60,66,38,47,77,65,1
1444,68.28536891937256,46,139,59,54,39,43,69,58,1
1445,68.30522775650024,55,179,57,55,37,51,74,64,1
1446,68.32736825942993,59,199,61,59,35,52,76,66,1
1447,68.35796689987183,57,186,54,59,34,47,69,67,1
1448,68.36580991744995,60,194,57,59,35,49,68,68,1
1449,68.38758754730225,63,199,57,56,34,51,70,69,1
1450,68.4106457233429,56,151,56,47,36,47,69,71,1
1451,68.42501425743103,49,137,56,41,36,49,85,75,1
1452,68.44763731956482,47,148,62,41,38,51,86,68,1
1453,68.4695258140564,40,128,60,41,36,49,86,66,1
1454,68.48513555526733,41,131,60,43,38,48,91,67,1
1455,68.50766897201538,43,134,54,53,36,43,85,55,1
1456,68.53007864952087,45,125,53,57,35,41,68,49,1
1457,68.54528713226318,46,126,50,55,33,38,63,47,1
1458,68.5678927898407,46,120,47,52,32,40,63,59,1
1459,68.59034132957458,57,117,48,52,28,41,55,57,1
1460,68.60547280311584,58,129,52,46,32,50,63,58,1
1461,68.62801718711853,62,156,58,47,32,54,62,56,1
1462,68.64999198913574,65,168,59,49,33,55,63,57,1
1463,68.66506099700928,67,175,60,52,37,53,58,47,1
1464,68.68712997436523,58,181,60,55,41,52,59,46,1
1465,68.7097589969635,55,209,65,63,38,46,71,59,1
1466,68.72574234008789,50,195,58,58,40,42,71,60,1
1467,68.7484803199768,49,175,55,55,41,40,71,60,1
1468,68.76978063583374,47,178,55,53,39,41,78,67,1
1469,68.78492212295532,48,173,52,47,33,39,78,67,1
1470,68.80833888053894,56,135,45,29,35,38,63,58,1
1471,68.83064079284668,63,139,44,33,34,40,62,60,1
1472,68.84525489807129,62,140,54,39,35,43,63,59,1
1473,68.86766695976257,66,138,58,44,36,54,61,47,1
1474,68.89043498039246,65,128,59,44,39,52,56,48,1
1475,68.90523529052734,58,127,60,49,38,54,55,47,1
1476,68.92785310745239,51,113,59,47,34,54,59,47,1
1477,68.95021057128906,56,147,59,46,31,62,75,57,1
1478,68.96534276008606,53,147,59,44,32,57,77,59,1
1479,68.9948399066925,52,149,59,45,36,58,80,56,1
1480,69.01028943061829,55,157,62,50,37,63,82,55,1
1481,69.02476811408997,59,160,65,57,44,63,82,59,1
1482,69.0471761226654,60,139,57,55,45,57,72,52,1
1483,69.07013154029846,57,127,49,55,44,51,63,47,1
1484,69.0849723815918,60,124,51,61,47,57,63,50,1
1485,69.107492685318,58,200,63,64,48,57,69,55,1
1486,69.12999749183655,52,201,62,63,44,56,66,50,1
1487,69.14509415626526,51,200,63,66,43,68,79,49,1
1488,69.16751837730408,51,203,64,66,43,71,85,49,1
1489,69.19029641151428,58,210,65,63,34,71,91,55,1
1490,69.21297812461853,56,129,51,54,36,66,84,52,1
1491,69.2282042503357,59,131,49,58,41,73,94,50,1
1492,69.25052762031555,57,132,48,56,44,59,84,51,1
1493,69.26581883430481,57,176,53,64,44,61,83,56,1
1494,69.28714513778687,56,217,69,66,48,63,79,52,1
1495,69.31077075004578,59,219,66,64,44,62,77,50,1
1496,69.33249855041504,60,222,68,58,40,55,71,54,1
1497,69.34727191925049,57,231,70,57,39,57,66,60,1
1498,69.37021565437317,57,214,68,48,40,56,65,58,1
1499,69.39273238182068,46,166,49,40,36,47,59,52,1
1500,69.40765333175659,43,171,59,41,38,49,63,62,1
1501,69.4323525428772,45,165,58,39,39,54,62,69,1
1502,69.45275855064392,43,144,55,40,38,53,59,65,1
1503,69.46704459190369,43,124,51,38,36,49,56,65,1
1504,69.48995685577393,44,158,57,51,40,51,55,73,1
1505,69.51210975646973,43,150,47,51,38,49,52,67,1
1506,69.52710485458374,39,155,47,56,41,43,51,59,1
1507,69.55011630058289,41,154,48,55,38,41,52,58,1
1508,69.57301235198975,43,154,47,54,38,41,60,59,1
1509,69.58695030212402,47,122,44,42,34,43,65,51,1
1510,69.61010217666626,49,114,42,41,36,44,70,55,1
1511,69.63263249397278,53,94,39,32,31,38,63,53,1
1512,69.64751887321472,53,94,38,33,37,40,65,54,1
1513,69.67024421691895,52,89,39,35,38,40,57,52,1
1514,69.69360518455505,53,97,38,37,38,34,55,55,1
1515,69.70741724967957,55,111,42,37,34,35,64,50,1
1516,69.7302029132843,49,118,47,36,35,34,64,50,1
1517,69.75217723846436,50,121,50,34,28,38,62,51,1
1518,69.76701426506042,51,150,57,40,28,50,82,55,1
1519,69.79011845588684,48,161,57,40,27,49,79,50,1
1520,69.81233358383179,47,166,60,43,31,49,67,47,1
1521,69.82782506942749,48,160,56,43,30,48,64,50,1
1522,69.85070371627808,49,175,60,45,33,51,72,51,1
1523,69.8729498386383,50,155,56,43,33,38,58,49,1
1524,69.88740944862366,49,129,55,45,39,44,71,51,1
1525,69.90993785858154,49,135,53,43,39,48,75,58,1
1526,69.93256115913391,52,202,72,64,48,67,91,63,1
1527,69.94805788993835,48,190,67,62,46,68,91,61,1
1528,69.97227430343628,44,198,70,65,48,75,87,60,1
1529,69.9926118850708,50,207,70,66,46,72,77,60,1
1530,70.00766944885254,52,210,69,66,45,72,85,59,1
1531,70.03044891357422,51,180,55,51,36,56,71,52,1
1532,70.05217456817627,52,177,56,54,43,53,65,47,1
1533,70.07499051094055,53,171,53,47,43,44,68,47,1
1534,70.0900809764862,49,205,66,52,44,46,72,57,1
1535,70.11252331733704,46,190,64,55,47,41,57,51,1
1536,70.1281487941742,46,169,59,51,45,43,60,50,1
1537,70.15019130706787,50,176,60,48,40,39,58,52,1
1538,70.17218351364136,51,182,62,48,37,41,56,51,1
1539,70.18694400787354,49,130,48,37,35,36,50,40,1
1540,70.21111679077148,50,128,49,35,36,46,64,41,1
1541,70.23192882537842,49,126,53,37,40,44,69,46,1
1542,70.25447154045105,46,114,51,36,41,49,72,51,1
1543,70.27066469192505,45,92,46,36,39,47,71,52,1
1544,70.29269862174988,48,112,48,41,42,47,71,54,1
1545,70.31503558158875,45,114,47,38,40,38,63,57,1
1546,70.33011054992676,46,105,42,35,38,40,59,57,1
1547,70.3526222705841,45,104,45,47,53,39,54,53,1
1548,70.37581944465637,45,112,46,48,53,41,55,51,1
1549,70.3906614780426,49,100,50,50,54,46,54,51,1
1550,70.41348719596863,50,99,54,54,57,51,51,53,1
1551,70.43523097038269,49,98,53,55,56,50,44,50,1
1552,70.45034337043762,48,97,50,48,41,45,47,51,1
1553,70.47195029258728,47,88,53,51,47,47,48,53,1
1554,70.49549984931946,38,110,52,50,44,45,50,54,1
1555,70.51003122329712,40,126,55,45,40,37,54,54,1
1556,70.53256511688232,39,124,57,44,44,43,59,56,1
1557,70.55532145500183,39,123,57,42,45,45,57,55,1
1558,70.56990098953247,43,122,52,38,40,43,55,55,1
1559,70.59274291992188,47,100,51,42,48,42,52,56,1
1560,70.61517667770386,44,99,43,46,45,54,72,49,1
1561,70.63013458251953,45,98,40,45,44,49,75,46,1
1562,70.65191078186035,45,100,40,50,48,54,78,46,1
1563,70.67580485343933,46,114,42,51,48,56,87,50,1
1564,70.6899905204773,43,119,40,44,41,54,87,45,1
1565,70.71256995201111,39,101,44,43,46,45,67,52,1
1566,70.73493719100952,38,100,43,42,42,45,59,51,1
1567,70.74992609024048,42,107,44,38,38,38,58,49,1
1568,70.77236557006836,44,138,46,44,36,35,46,47,1
1569,70.79448056221008,46,138,49,44,35,36,48,61,1
1570,70.81047987937927,49,135,44,39,28,32,47,56,1
1571,70.83256506919861,50,136,44,39,29,35,49,57,1
1572,70.85525798797607,51,146,45,46,39,40,47,64,1
1573,70.87006449699402,47,127,43,38,41,41,48,62,1
1574,70.89254355430603,45,119,40,39,41,42,46,47,1
1575,70.91488027572632,44,116,40,42,45,42,45,47,1
1576,70.93034148216248,48,124,41,44,45,44,50,52,1
1577,70.95244860649109,42,109,39,39,34,45,44,42,1
1578,70.97525191307068,41,87,38,38,33,44,42,41,1
1579,70.9902172088623,40,88,35,36,31,45,40,44,1
1580,71.01275753974915,39,90,33,34,29,45,39,44,1
1581,71.03497123718262,35,111,45,37,30,44,54,47,1
1582,71.04947900772095,34,108,45,33,32,38,55,47,1
1583,71.07348871231079,34,111,46,35,31,37,57,48,1
1584,71.09538912773132,37,108,47,36,32,34,62,45,1
1585,71.11014366149902,41,121,53,36,29,38,65,45,1
1586,71.13249635696411,40,99,43,32,27,35,58,38,1
1587,71.155029296875,43,106,46,35,29,37,58,38,1
1588,71.16986513137817,46,119,50,45,30,44,56,38,1
1589,71.19278597831726,43,127,55,45,32,44,55,45,1
1590,71.21527910232544,41,141,57,52,40,48,55,49,1
1591,71.2376811504364,42,141,60,52,42,47,43,50,1
1592,71.25283908843994,40,134,57,52,44,45,42,53,1
1593,71.27572894096375,38,122,54,43,45,40,45,55,1
1594,71.2977864742279,42,119,52,45,47,42,43,49,1
1595,71.31265068054199,41,92,45,38,41,35,41,46,1
1596,71.33499670028687,38,82,45,37,41,34,50,45,1
1597,71.3577995300293,41,86,47,35,39,34,54,43,1
1598,71.37215733528137,44,83,44,34,38,39,53,42,1
1599,71.39436101913452,42,103,41,37,32,39,59,45,1
1600,71.41771626472473,47,117,42,38,33,42,59,45,1
1601,71.43318629264832,47,118,40,40,38,45,52,43,1
1602,71.45500135421753,44,114,38,39,36,46,48,41,1
1603,71.4780707359314,47,153,51,46,36,51,48,52,1
1604,71.49266409873962,47,144,52,49,37,53,45,52,1
1605,71.51521158218384,40,134,50,48,38,51,48,50,1
1606,71.53760647773743,42,135,49,45,35,50,50,50,1
1607,71.5525107383728,49,169,58,50,38,56,60,52,1
1608,71.57437539100647,43,139,50,49,38,51,59,43,1
1609,71.59777402877808,45,139,49,44,37,49,54,47,1
1610,71.61337971687317,49,137,51,44,38,48,50,51,1
1611,71.63502550125122,52,152,51,47,36,54,55,52,1
1612,71.65752029418945,49,117,41,44,34,48,45,54,1
1613,71.67302417755127,49,103,37,39,38,47,54,59,1
1614,71.69552803039551,47,107,35,40,39,46,57,53,1
1615,71.71760153770447,48,107,33,38,37,49,61,54,1
1616,71.73249077796936,44,84,35,35,37,41,58,53,1
1617,71.75445985794067,39,85,35,36,38,45,62,51,1
1618,71.77748656272888,36,94,40,38,36,40,61,50,1
1619,71.7927131652832,39,85,45,40,36,41,66,55,1
1620,71.81520748138428,34,97,52,44,37,39,77,51,1
1621,71.83808660507202,34,95,52,45,39,40,74,53,1
1622,71.85199880599976,36,93,53,41,37,37,71,51,1
1623,71.87504458427429,41,93,50,39,33,40,67,49,1
1624,71.905344247818,41,91,46,36,36,39,60,45,1
1625,71.91242241859436,45,85,42,33,37,40,41,47,1
1626,71.93526458740234,45,92,47,35,38,43,45,51,1
1627,71.95740914344788,46,90,46,37,39,41,44,51,1
1628,71.97258567810059,45,91,46,42,41,43,43,53,1
1629,71.99528861045837,61,90,47,41,39,46,57,57,1
1630,72.01776361465454,59,85,45,42,39,44,54,57,1
1631,72.03275322914124,60,95,38,43,35,42,55,55,1
1632,72.05511116981506,59,98,37,42,35,42,55,56,1
1633,72.07796454429626,61,90,35,37,33,38,54,49,1
1634,72.09218454360962,44,89,33,39,31,33,38,49,1
1635,72.12313795089722,44,89,32,38,36,39,52,47,1
1636,72.13747215270996,41,75,32,39,37,42,51,44,1
1637,72.1601037979126,40,72,34,39,38,41,50,45,1
1638,72.17501091957092,40,107,36,40,37,43,52,48,1
1639,72.19778323173523,38,113,36,39,37,42,51,39,1
1640,72.22058916091919,40,116,34,38,29,37,39,37,1
1641,72.23451709747314,42,121,34,34,32,33,37,38,1
1642,72.25746583938599,43,123,35,35,32,35,46,40,1
1643,72.28099822998047,40,114,43,41,35,32,46,44,1
1644,72.29494380950928,37,106,44,41,34,33,48,45,1
1645,72.31784248352051,37,102,44,39,35,31,49,48,1
1646,72.34115266799927,34,92,44,40,32,31,46,46,1
1647,72.35492944717407,33,87,42,39,33,30,35,44,1
1648,72.37741780281067,38,56,34,32,31,31,33,40,1
1649,72.40069890022278,39,56,33,33,31,31,35,42,1
1650,72.41583776473999,51,56,33,37,37,31,35,38,1
1651,72.43685793876648,53,54,32,36,37,32,36,41,1
1652,72.46080446243286,56,63,32,39,35,33,38,44,1
1653,72.47528290748596,59,98,42,47,44,39,47,51,1
1654,72.49783062934875,58,106,44,46,45,37,44,49,1
1655,72.5209264755249,49,104,44,43,40,36,43,51,1
1656,72.53514003753662,48,106,49,45,41,35,42,55,1
1657,72.55811357498169,53,105,50,48,41,39,40,57,1
1658,72.58073019981384,48,70,40,38,30,31,28,49,1
1659,72.59527778625488,48,53,41,38,32,32,26,50,1
1660,72.6180465221405,49,133,56,44,33,37,28,50,1
1661,72.64072489738464,48,141,57,42,32,37,32,46,1
1662,72.65507793426514,38,143,57,41,35,38,36,42,1
1663,72.67809677124023,39,147,58,42,34,37,38,41,1
1664,72.70161414146423,40,151,56,41,31,37,40,42,1
1665,72.71520042419434,40,102,41,42,33,39,39,41,1
1666,72.73796892166138,42,88,33,42,29,40,42,44,1
1667,72.76075959205627,41,85,30,37,24,34,38,42,1
1668,72.77497601509094,39,85,31,40,28,39,39,42,1
1669,72.7974488735199,39,112,35,42,30,43,39,42,1
1670,72.8212742805481,36,104,37,38,29,38,39,38,1
1671,72.8343596458435,32,103,38,37,34,38,35,35,1
1672,72.8574640750885,35,101,38,38,35,42,42,37,1
1673,72.88012742996216,40,97,38,36,34,38,40,40,1
1674,72.89547514915466,45,98,42,43,34,45,70,47,1
1675,72.9174165725708,45,102,45,43,33,46,71,48,1
1676,72.9409704208374,47,107,44,43,31,45,71,47,1
1677,72.95504879951477,45,111,46,43,29,44,70,48,1
1678,72.97777509689331,40,137,55,45,32,44,75,49,1
1679,73.00072646141052,37,115,47,36,31,32,50,48,1
1680,73.01501226425171,39,108,43,33,32,35,49,50,1
1681,73.03900527954102,40,134,48,42,38,42,54,52,1
1682,73.06042957305908,44,131,47,40,39,43,56,49,1
1683,73.07476353645325,47,106,38,39,38,44,50,49,1
1684,73.0975649356842,45,122,41,47,40,45,52,41,1
1685,73.12135100364685,41,129,42,47,39,42,51,45,1
1686,73.14387202262878,39,100,37,41,40,35,47,46,1
1687,73.15767216682434,34,99,38,44,42,35,40,47,1
1688,73.18139719963074,30,98,35,44,44,33,39,45,1
1689,73.2030622959137,37,77,33,35,42,33,36,49,1
1690,73.21739077568054,41,67,34,37,43,33,35,42,1
1691,73.24091291427612,48,75,38,34,38,34,39,51,1
1692,73.2633011341095,48,73,41,34,45,34,41,51,1
1693,73.27725005149841,48,71,40,32,43,34,42,52,1
1694,73.30050826072693,45,64,43,35,45,37,43,52,1
1695,73.32306098937988,42,65,44,32,45,41,47,52,1
1696,73.33746862411499,35,52,37,30,43,40,41,41,1
1697,73.36040496826172,37,53,36,28,37,41,43,46,1
1698,73.38264536857605,38,54,39,28,36,40,43,45,1
1699,73.39681196212769,34,48,37,27,35,38,40,40,1
1700,73.42077374458313,42,53,40,31,35,35,41,47,1
1701,73.44374704360962,42,50,41,31,34,33,39,48,1
1702,73.45762038230896,40,49,40,32,32,29,35,42,1
1703,73.48150372505188,43,51,38,30,33,30,35,47,1
1704,73.50284743309021,47,77,40,28,30,30,40,48,1
1705,73.51722764968872,42,76,40,27,31,30,52,49,1
1706,73.54024386405945,41,81,46,31,37,34,55,48,1
1707,73.56247401237488,47,80,45,31,36,36,55,54,1
1708,73.57737803459167,54,81,45,37,43,37,58,69,1
1709,73.60133481025696,54,58,42,38,44,38,57,71,1
1710,73.6229419708252,55,52,38,36,43,37,41,66,1
1711,73.63771605491638,54,49,34,34,39,32,39,67,1
1712,73.66006374359131,49,51,32,33,38,29,38,65,1
1713,73.68308115005493,38,44,31,29,30,34,32,45,1
1714,73.69751119613647,34,50,35,31,32,32,30,43,1
1715,73.71933460235596,32,53,35,30,33,32,31,44,1
1716,73.74368333816528,32,50,31,29,33,33,28,40,1
1717,73.75702738761902,30,48,31,32,33,34,30,34,1
1718,73.77952647209167,32,51,31,29,31,29,32,33,1
1719,73.80358529090881,35,53,28,31,34,31,34,33,1
1720,73.81747460365295,34,56,31,32,34,31,34,32,1
1721,73.83996033668518,33,58,31,31,33,32,34,33,1
1722,73.86276531219482,35,57,30,31,34,35,37,36,1
1723,73.8781533241272,34,58,38,32,36,36,36,39,1
1724,73.90018320083618,30,53,38,31,34,34,39,41,1
1725,73.92277693748474,32,45,35,29,31,33,42,45,1
1726,73.93714213371277,32,46,36,32,32,32,45,47,1
1727,73.96016120910645,34,47,37,30,31,28,44,49,1
1728,73.9832911491394,33,39,30,32,36,30,48,50,1
1729,73.99753713607788,36,39,28,31,38,37,43,47,1
1730,74.02002501487732,36,38,29,31,41,38,40,45,1
1731,74.04301166534424,34,35,26,30,42,39,39,41,1
1732,74.06528186798096,34,34,27,28,44,40,39,40,1
1733,74.0800256729126,35,36,27,27,39,36,35,37,1
1734,74.10409140586853,34,35,26,25,34,27,34,36,1
1735,74.12576198577881,34,35,27,26,34,28,34,34,1
1736,74.13988137245178,34,35,30,34,35,27,32,36,1
1737,74.16315054893494,33,39,31,35,33,26,32,33,1
1738,74.18550229072571,39,45,31,35,33,29,31,34,1
1739,74.19986152648926,39,48,34,37,41,32,32,36,1
1740,74.22316980361938,38,48,33,37,39,33,30,37,1
1741,74.2451171875,42,47,30,30,39,36,31,37,1
1742,74.25954699516296,46,48,29,31,38,34,31,39,1
1743,74.28393197059631,38,41,28,31,39,31,32,39,1
1744,74.30523753166199,39,38,26,33,33,29,35,40,1
1745,74.32054734230042,40,38,31,33,36,29,36,39,1
1746,74.3429365158081,35,38,34,31,33,24,34,42,1
1747,74.36559104919434,33,32,34,32,38,26,33,42,1
1748,74.37933373451233,32,32,33,33,36,26,33,45,1
1749,74.40303587913513,30,29,30,27,33,26,30,46,1
1750,74.42556977272034,28,29,25,28,30,24,30,49,1
1751,74.43975639343262,28,31,23,32,36,28,32,46,1
1752,74.46408152580261,26,33,25,29,33,27,30,44,1
1753,74.48513746261597,26,34,25,29,35,28,28,44,1
1754,74.50015020370483,25,32,28,31,36,29,27,40,1
1755,74.52319121360779,25,34,32,30,39,29,28,37,1
1756,74.54570865631104,27,34,34,30,36,26,27,42,1
1757,74.55995106697083,28,34,33,30,36,28,27,39,1
1758,74.58332085609436,31,35,35,31,40,29,29,35,1
1759,74.60497808456421,30,34,32,29,39,29,29,33,1
1760,74.62024664878845,32,32,28,28,36,28,27,32,1
1761,74.64310145378113,30,32,27,32,43,30,26,30,1
1762,74.66550660133362,29,34,26,33,44,30,29,30,1
1763,74.68006181716919,27,33,23,31,40,25,27,32,1
1764,74.70327067375183,33,32,26,33,44,26,29,33,1
1765,74.72583818435669,34,33,27,34,46,27,29,36,1
1766,74.73959636688232,37,30,26,28,38,26,29,34,1
1767,74.7632954120636,37,25,29,28,35,28,33,35,1
1768,74.78565001487732,35,25,28,29,33,29,33,33,1
1769,74.80763149261475,32,26,25,26,27,26,34,35,1
1770,74.82304883003235,32,33,28,29,27,27,36,32,1
1771,74.84576272964478,30,36,28,29,28,27,38,35,1
1772,74.86020183563232,29,38,27,28,29,29,37,35,1
1773,74.88301920890808,35,38,27,27,38,32,37,34,1
1774,74.90589880943298,36,38,28,27,39,33,36,35,1
1775,74.91995644569397,39,31,26,22,37,32,37,41,1
1776,74.94406652450562,37,28,24,22,35,31,36,39,1
1777,74.96575164794922,45,37,24,21,34,30,34,41,1
1778,74.9882116317749,40,38,25,22,26,28,35,45,1
1779,75.00255799293518,41,39,28,22,27,28,35,44,1
1780,75.0255708694458,38,39,25,22,28,29,32,38,1
1781,75.04805707931519,39,40,27,22,28,29,32,37,1
1782,75.06308317184448,35,31,31,29,35,27,31,39,1
1783,75.0856237411499,35,28,29,30,38,28,32,34,1
1784,75.10808992385864,32,24,26,30,37,28,30,33,1
1785,75.1230239868164,32,25,27,31,36,26,31,36,1
1786,75.1456253528595,31,27,27,31,37,27,30,35,1
1787,75.16820645332336,26,26,25,25,30,26,30,32,1
1788,75.18367910385132,24,27,24,24,26,24,29,34,1
1789,75.20507907867432,28,31,30,29,31,27,31,35,1
1790,75.23624181747437,27,31,31,31,32,29,30,32,1
1791,75.24332475662231,32,29,30,31,33,29,31,33,1
1792,75.2658760547638,36,29,31,35,33,28,29,34,1
1793,75.28808808326721,37,34,31,33,31,31,28,32,1
1794,75.30298042297363,34,40,26,32,27,29,27,31,1
1795,75.32513809204102,35,39,24,31,28,30,26,33,1
1796,75.3477075099945,32,40,23,30,27,28,25,33,1
1797,75.36318588256836,28,42,26,31,29,30,28,32,1
1798,75.38553214073181,28,43,26,32,30,28,30,37,1
1799,75.4078221321106,29,43,27,30,32,30,34,37,1
1800,75.42305183410645,29,45,26,28,30,28,33,34,1
1801,75.44662046432495,32,46,29,33,35,29,34,37,1
1802,75.46808409690857,30,43,25,27,34,32,30,36,1
1803,75.48455047607422,33,41,27,28,35,32,26,33,1
1804,75.50595569610596,36,37,31,30,38,30,23,33,1
1805,75.52853870391846,38,35,31,32,38,31,22,35,1
1806,75.55067014694214,40,40,30,29,38,30,24,31,1
1807,75.56567215919495,43,40,29,29,37,27,25,31,1
1808,75.58826422691345,41,38,27,27,35,27,26,30,1
1809,75.60271000862122,40,36,26,26,34,27,27,31,1
1810,75.62566661834717,39,39,27,25,34,28,27,30,1
1811,75.6478865146637,35,32,25,23,30,27,25,33,1
1812,75.66227126121521,35,34,28,30,35,29,24,36,1
1813,75.68574690818787,35,33,32,31,36,30,24,37,1
1814,75.70799684524536,35,31,28,29,33,29,21,35,1
1815,75.72230076789856,34,27,30,30,34,29,21,37,1
1816,75.74499678611755,32,28,32,29,38,29,25,34,1
1817,75.76802849769592,30,24,30,25,35,28,27,29,1
1818,75.78311371803284,32,22,27,23,35,29,28,27,1
1819,75.80556464195251,29,21,28,24,33,27,30,28,1
1820,75.82753133773804,27,18,27,25,33,27,33,30,1
1821,75.84227585792542,28,15,25,24,27,27,31,30,1
1822,75.86505699157715,27,18,24,24,27,24,32,35,1
1823,75.88856101036072,35,21,25,24,29,22,31,35,1
1824,75.91072940826416,37,23,25,25,34,23,31,34,1
1825,75.92544484138489,38,30,26,24,33,22,31,36,1
1826,75.94899463653564,41,31,27,25,33,23,32,38,1
1827,75.97022747993469,42,36,31,29,38,23,29,36,1
1828,75.98499965667725,36,36,31,29,35,22,30,36,1
1829,76.00816106796265,36,40,33,30,33,22,29,35,1
1830,76.03057765960693,34,37,30,30,34,25,25,32,1
1831,76.04622626304626,32,37,29,31,34,28,29,33,1
1832,76.06808924674988,32,32,25,29,29,28,30,34,1
1833,76.09048390388489,34,29,26,30,30,30,33,34,1
1834,76.1055657863617,33,25,25,31,31,31,36,35,1
1835,76.12814855575562,31,24,26,31,30,31,37,35,1
1836,76.15203595161438,34,22,29,31,30,31,35,31,1
1837,76.1656482219696,32,26,34,33,37,33,35,30,1
1838,76.18914818763733,30,28,34,32,36,33,33,29,1
1839,76.21120095252991,29,29,35,29,37,32,32,30,1
1840,76.22537279129028,30,32,34,32,37,33,31,31,1
1841,76.24827075004578,28,33,34,35,40,33,29,30,1
1842,76.27083945274353,32,29,28,32,31,31,29,30,1
1843,76.28587126731873,35,30,31,39,36,31,29,33,1
1844,76.30771231651306,36,28,31,40,38,31,28,34,1
1845,76.32994771003723,36,27,31,38,39,28,31,34,1
1846,76.3456060886383,35,28,30,36,38,28,32,37,1
1847,76.36839032173157,34,31,33,38,40,27,33,36,1
1848,76.39084577560425,29,31,29,32,40,26,34,35,1
1849,76.40488862991333,33,32,30,31,38,27,35,32,1
1850,76.42767810821533,35,32,32,31,35,29,33,35,1
1851,76.4504029750824,38,33,32,31,34,28,33,32,1
1852,76.46496152877808,36,34,29,30,34,29,33,33,1
1853,76.48797702789307,37,33,29,32,39,30,34,35,1
1854,76.51030325889587,34,35,30,32,39,31,33,36,1
1855,76.52587747573853,36,32,30,33,39,29,32,34,1
1856,76.5494134426117,38,33,31,32,40,30,33,38,1
1857,76.57100796699524,39,31,32,33,42,33,31,40,1
1858,76.58524489402771,39,31,32,31,35,31,29,38,1
1859,76.60878109931946,39,29,31,30,33,30,29,37,1
1860,76.63031578063965,37,33,35,37,40,34,30,40,1
1861,76.64533519744873,31,31,35,37,40,32,27,37,1
1862,76.66779899597168,31,33,36,35,38,29,26,36,1
1863,76.69030475616455,35,32,36,35,37,30,26,41,1
1864,76.7047975063324,34,34,34,36,38,32,28,41,1
1865,76.72905540466309,33,30,29,32,36,30,32,40,1
1866,76.75039339065552,33,30,28,34,36,33,34,39,1
1867,76.7646267414093,33,26,30,37,36,32,35,37,1
1868,76.79550695419312,28,28,29,38,39,34,35,32,1
1869,76.81056356430054,32,24,29,37,39,34,33,33,1
1870,76.82453846931458,32,23,26,32,34,33,27,29,1
1871,76.85508823394775,32,26,29,34,37,30,26,31,1
1872,76.87065029144287,31,27,25,30,35,28,27,32,1
1873,76.89300727844238,32,27,28,26,31,27,25,41,1
1874,76.90810441970825,33,29,29,28,30,24,27,42,1
1875,76.93042826652527,31,30,30,28,32,23,28,43,1
1876,76.96087074279785,32,27,28,23,30,25,26,43,1
1877,76.96806979179382,33,31,31,28,39,30,26,43,1
1878,76.99088716506958,32,31,30,31,41,30,28,36,1
1879,77.01305437088013,28,33,32,33,41,29,27,33,1
1880,77.0298843383789,29,35,32,36,42,30,26,34,1
1881,77.05060982704163,28,35,30,34,40,30,29,34,1
1882,77.07377004623413,30,33,33,36,35,29,31,34,1
1883,77.08833479881287,31,35,34,39,40,27,33,36,1
1884,77.10920858383179,30,32,32,39,42,28,33,37,1
1885,77.1317229270935,31,33,33,38,42,28,32,39,1
1886,77.15005946159363,33,33,36,42,44,30,35,43,1
1887,77.16969799995422,35,31,34,38,41,28,35,44,1
1888,77.19224882125854,35,31,33,38,37,29,32,40,1
1889,77.20924425125122,35,30,36,37,36,30,34,40,1
1890,77.2298846244812,36,26,35,34,35,29,34,37,1
1891,77.25285768508911,37,27,34,32,33,26,31,33,1
1892,77.26931834220886,34,32,33,32,35,30,31,35,1
1893,77.29020833969116,35,29,34,29,32,34,33,36,1
1894,77.312415599823,35,32,28,30,32,34,33,36,1
1895,77.33078050613403,32,34,30,32,34,36,34,36,1
1896,77.34967160224915,32,35,32,35,37,38,34,38,1
1897,77.37257981300354,34,31,33,36,40,37,33,36,1
1898,77.38929390907288,35,34,34,39,43,33,32,37,1
1899,77.41017556190491,34,31,38,38,41,32,28,35,1
1900,77.43192529678345,35,30,41,43,45,33,30,39,1
1901,77.44873666763306,33,31,41,44,44,32,32,37,1
1902,77.47193622589111,28,30,41,43,45,33,34,36,1
1903,77.49231147766113,27,28,38,42,45,34,34,37,1
1904,77.50953316688538,28,28,34,41,44,35,38,39,1
1905,77.53205847740173,29,31,34,42,47,34,38,39,1
1906,77.5524492263794,29,30,29,41,45,33,35,38,1
1907,77.57500910758972,32,35,30,42,47,32,38,43,1
1908,77.59911584854126,31,37,34,46,52,32,37,45,1
1909,77.62045335769653,33,37,36,47,53,32,36,43,1
1910,77.6283950805664,30,34,32,41,47,31,34,41,1
1911,77.65113735198975,30,35,34,38,45,31,34,41,1
1912,77.6723620891571,29,32,37,38,43,31,29,36,1
1913,77.68936252593994,30,30,36,34,36,29,29,32,1
1914,77.71061158180237,28,30,34,35,36,29,28,35,1
1915,77.73239254951477,33,35,41,40,43,28,29,36,1
1916,77.74936318397522,32,33,39,40,42,28,28,36,1
1917,77.77195000648499,33,33,38,42,43,28,31,36,1
1918,77.79236316680908,35,32,35,37,42,27,30,34,1
1919,77.8092577457428,36,33,36,35,40,29,28,31,1
1920,77.83190870285034,33,24,27,29,33,27,30,32,1
1921,77.85232210159302,33,33,30,34,38,29,30,30,1
1922,77.87419152259827,33,35,28,32,33,28,27,28,1
1923,77.89189887046814,32,38,30,36,42,31,30,30,1
1924,77.91249966621399,35,38,29,36,42,29,31,33,1
1925,77.93500447273254,40,43,35,42,49,34,33,30,1
1926,77.95296716690063,39,36,32,40,46,32,33,31,1
1927,77.97220754623413,41,42,36,41,48,34,33,36,1
1928,77.99463963508606,41,43,36,39,42,34,33,39,1
1929,78.01163530349731,39,44,39,49,51,35,35,38,1
1930,78.03219962120056,34,41,35,44,45,33,33,36,1
1931,78.05508971214294,34,42,34,43,45,34,35,40,1
1932,78.07160925865173,33,31,29,42,42,31,36,36,1
1933,78.09243869781494,31,27,30,41,42,28,33,34,1
1934,78.11577129364014,31,28,28,32,35,25,29,34,1
1935,78.13182044029236,32,26,27,30,35,25,28,35,1
1936,78.15236830711365,34,31,30,31,34,29,27,30,1
1937,78.17480659484863,31,31,30,29,35,28,25,32,1
1938,78.19335579872131,37,36,33,28,36,29,26,32,1
1939,78.21222352981567,40,33,31,25,30,30,27,31,1
1940,78.24174618721008,41,35,34,30,33,34,29,36,1
1941,78.25152325630188,42,29,33,27,32,31,27,35,1
1942,78.27411460876465,41,31,33,28,32,33,28,34,1
1943,78.29472589492798,36,26,28,27,28,34,28,33,1
1944,78.3132746219635,31,27,28,25,29,34,29,33,1
1945,78.33254742622375,33,27,25,22,25,30,30,29,1
1946,78.35495829582214,30,27,23,22,27,31,31,31,1
1947,78.37200093269348,33,26,24,22,29,30,30,32,1
1948,78.39262771606445,33,27,25,23,31,29,30,35,1
1949,78.41495776176453,34,25,25,26,33,31,29,35,1
1950,78.43225812911987,36,22,27,29,35,32,28,37,1
1951,78.45253276824951,36,21,28,31,35,35,27,36,1
1952,78.47497081756592,36,20,30,33,35,35,26,38,1
1953,78.4907329082489,38,21,34,34,34,37,27,37,1
1954,78.51179051399231,40,24,36,33,33,37,30,35,1
1955,78.53493762016296,34,28,36,34,31,35,30,36,1
1956,78.55124044418335,39,31,38,37,37,35,33,39,1
1957,78.57327556610107,40,32,35,35,34,35,34,39,1
1958,78.59610867500305,41,31,31,36,35,36,34,37,1
1959,78.61178803443909,36,31,28,37,35,33,33,39,1
1960,78.63237643241882,37,29,27,33,36,32,33,34,1
1961,78.65461778640747,33,29,27,30,32,29,32,30,1
1962,78.67163872718811,29,30,27,30,29,27,31,26,1
1963,78.69238924980164,25,36,30,29,31,29,33,32,1
1964,78.7157335281372,30,36,29,28,32,32,33,33,1
1965,78.73223757743835,30,37,28,28,31,31,30,34,1
1966,78.75236296653748,31,37,28,33,38,33,35,35,1
1967,78.77704405784607,31,37,29,35,41,33,37,35,1
1968,78.7966239452362,31,32,29,36,42,29,37,32,1
1969,78.8122124671936,31,31,31,42,49,33,40,31,1
1970,78.8346962928772,32,31,33,43,50,33,41,32,1
1971,78.85715317726135,38,30,30,39,43,31,36,37,1
1972,78.87211275100708,37,29,29,37,42,30,33,38,1
1973,78.89477324485779,39,30,28,35,40,30,31,35,1
1974,78.91731524467468,35,31,26,27,31,24,26,36,1
1975,78.93324041366577,34,35,25,27,30,24,23,37,1
1976,78.95485091209412,29,35,26,28,34,25,25,34,1
1977,78.9775607585907,29,34,27,27,33,26,24,36,1
1978,78.991770029068,33,35,27,29,36,25,29,36,1
1979,79.01607131958008,35,34,29,31,37,25,33,36,1
1980,79.03725719451904,35,30,30,31,37,25,34,35,1
1981,79.05212163925171,33,28,28,30,32,25,32,31,1
1982,79.07455539703369,33,30,32,33,34,24,32,29,1
1983,79.09759879112244,30,28,31,31,31,26,29,29,1
1984,79.11220097541809,42,31,30,32,31,25,26,30,1
1985,79.1349368095398,41,33,28,29,29,24,25,29,1
1986,79.15727233886719,42,37,32,31,32,24,29,37,1
1987,79.17249488830566,42,36,29,32,30,24,30,38,1
1988,79.19430327415466,43,39,34,37,37,24,32,39,1
1989,79.21716856956482,32,42,40,40,41,28,34,43,1
1990,79.23231935501099,34,41,42,41,43,29,35,46,1
1991,79.25478172302246,33,39,41,40,42,28,33,41,1
1992,79.27718687057495,40,43,46,40,48,29,35,42,1
1993,79.29290652275085,38,41,45,37,43,29,31,40,1
1994,79.3151638507843,37,35,40,34,37,28,30,36,1
1995,79.337393283844,36,34,38,34,38,28,28,34,1
1996,79.352530002594,35,40,43,42,46,29,32,38,1
1997,79.37465405464172,30,37,36,40,39,29,30,39,1
1998,79.3979127407074,30,39,40,42,46,28,30,42,1
1999,79.41188406944275,29,39,41,40,48,31,30,40,1
2000,79.43405485153198,29,40,40,43,47,29,29,40,1
2001,79.45715403556824,30,32,35,34,38,29,25,35,1
2002,79.47222757339478,26,31,35,34,40,34,30,33,1
2003,79.49491953849792,28,29,27,31,36,35,31,28,1
2004,79.51696538925171,28,29,26,30,32,33,30,31,1
2005,79.53249430656433,29,31,28,27,35,35,31,34,1
2006,79.55427479743958,33,33,27,28,35,34,32,37,1
2007,79.57753539085388,31,34,27,29,33,28,29,40,1
2008,79.59237122535706,31,32,26,32,32,29,32,42,1
2009,79.61489129066467,32,32,25,30,29,28,32,40,1
2010,79.63715052604675,29,27,19,29,25,26,31,37,1
2011,79.65224361419678,31,26,22,35,31,27,31,36,1
2012,79.67639470100403,34,27,22,35,32,31,30,39,1
2013,81.60185670852661,62,54,58,83,94,52,63,31,2
2014,81.61714243888855,55,51,57,89,103,53,61,33,2
2015,81.63997435569763,49,50,51,80,89,50,57,30,2
2016,81.66186809539795,45,49,49,79,89,45,49,31,2
2017,81.6846969127655,38,41,40,78,81,42,42,36,2
2018,81.69961214065552,35,42,44,91,88,46,47,37,2
2019,81.72209358215332,43,48,45,96,90,54,54,35,2
2020,81.74462628364563,46,49,49,98,92,55,55,38,2
2021,81.75980925559998,49,48,50,97,91,53,57,36,2
2022,81.78239560127258,55,53,52,103,95,54,57,32,2
2023,81.80492901802063,59,55,50,103,94,54,61,32,2
2024,81.8192970752716,55,49,47,85,78,44,56,34,2
2025,81.84183621406555,54,48,48,91,83,45,59,30,2
2026,81.86500716209412,49,46,45,87,80,45,58,29,2
2027,81.8795874118805,44,40,40,78,75,44,56,30,2
2028,81.90198993682861,48,36,40,75,76,44,48,31,2
2029,83.26780939102173,53,49,47,92,89,52,46,36,2
2030,83.28282928466797,44,44,42,82,69,43,46,39,2
2031,83.30413436889648,40,43,41,87,75,46,47,42,2
2032,83.3282253742218,41,40,39,87,85,54,49,44,2
2033,83.34149241447449,38,30,30,81,82,52,49,42,2
2034,83.36466336250305,35,33,32,71,78,47,52,40,2
2035,83.38775396347046,35,35,33,73,80,46,49,35,2
2036,83.41026544570923,35,38,35,64,68,42,47,35,2
2037,83.4253261089325,35,37,35,73,57,35,45,38,2
2038,83.4478235244751,42,41,38,87,64,39,52,39,2
2039,83.46299266815186,42,40,36,91,66,42,48,42,2
2040,83.4854519367218,47,45,43,93,67,44,49,44,2
2041,83.50772213935852,48,48,46,98,76,44,49,41,2
2042,83.52212357521057,50,48,47,91,79,40,47,37,2
2043,83.54538059234619,47,45,45,80,76,39,41,35,2
2044,83.56750535964966,47,43,44,87,78,41,42,31,2
2045,83.59053373336792,46,40,41,78,76,39,41,34,2
2046,83.60456418991089,42,33,34,68,65,38,37,35,2
2047,83.62841439247131,40,35,35,73,66,42,38,34,2
2048,83.65035653114319,40,36,34,75,65,42,37,35,2
2049,83.66483783721924,44,38,39,73,70,38,42,37,2
2050,83.68795490264893,41,33,34,72,67,36,40,36,2
2051,83.71116018295288,42,36,39,77,74,40,41,36,2
2052,83.72421407699585,40,34,38,79,72,37,42,35,2
2053,83.74742197990417,37,31,36,81,68,36,42,34,2
2054,83.7696967124939,37,33,37,75,57,36,35,35,2
2055,83.78503465652466,41,40,41,76,66,42,39,38,2
2056,83.80778956413269,45,39,36,76,59,40,39,37,2
2057,83.8302047252655,43,40,40,68,68,45,40,37,2
2058,83.84462070465088,47,42,40,62,79,49,46,41,2
2059,83.86791038513184,42,38,35,60,77,48,47,40,2
2060,83.89041686058044,40,30,33,61,67,43,47,35,2
2061,83.90423154830933,39,32,36,62,68,42,50,34,2
2062,83.92795205116272,48,39,39,76,75,44,53,34,2
2063,83.9505820274353,46,39,44,75,63,39,48,32,2
2064,83.96417570114136,46,41,46,81,68,39,49,29,2
2065,83.98786354064941,44,42,46,82,72,39,50,29,2
2066,84.00973415374756,46,46,51,91,84,42,51,29,2
2067,84.02483034133911,40,40,48,80,71,35,45,29,2
2068,84.04771757125854,39,39,45,80,72,33,43,28,2
2069,84.0698299407959,40,38,45,73,70,33,40,29,2
2070,84.08510041236877,39,39,46,77,73,33,37,28,2
2071,84.10786533355713,37,32,39,60,58,29,34,28,2
2072,84.12980914115906,36,33,37,61,55,28,37,32,2
2073,84.14510536193848,36,33,36,56,51,30,37,30,2
2074,84.16788911819458,35,32,35,61,50,31,37,35,2
2075,84.19045114517212,39,34,37,61,45,34,37,34,2
2076,84.20472073554993,37,36,37,64,46,36,36,38,2
2077,84.22770476341248,38,35,35,60,49,36,37,35,2
2078,84.25048184394836,39,34,40,63,51,37,39,36,2
2079,84.26572823524475,41,38,39,61,63,38,42,34,2
2080,84.287850856781,40,35,35,52,67,36,42,35,2
2081,84.31038522720337,41,32,37,59,77,43,42,31,2
2082,84.32464838027954,44,29,37,63,79,46,45,32,2
2083,84.34771776199341,44,33,37,67,81,45,44,32,2
2084,84.37038040161133,44,31,37,75,77,46,43,29,2
2085,84.38515877723694,44,30,36,78,77,46,43,28,2
2086,84.40773892402649,43,31,35,72,66,43,41,29,2
2087,84.43069672584534,40,35,35,76,65,39,38,29,2
2088,84.44527244567871,47,42,39,90,75,43,45,29,2
2089,84.46726703643799,51,45,45,95,79,44,49,33,2
2090,84.48961019515991,57,55,49,101,94,47,56,34,2
2091,84.51312255859375,57,54,48,100,95,44,62,39,2
2092,84.52793908119202,57,54,49,100,94,48,62,37,2
2093,84.55023431777954,50,48,47,84,84,46,56,40,2
2094,84.57241797447205,47,44,41,77,78,46,52,37,2
2095,84.58784437179565,43,34,38,67,61,46,48,38,2
2096,84.6102705001831,42,38,40,77,60,47,38,33,2
2097,84.63269925117493,46,40,44,84,78,53,43,34,2
2098,84.64764475822449,51,43,45,85,85,53,44,31,2
2099,84.67048907279968,52,47,52,89,96,56,51,33,2
2100,84.69277739524841,56,52,56,93,108,59,55,31,2
2101,84.70788335800171,63,54,59,91,119,65,66,34,2
2102,84.73041033744812,61,54,58,80,110,58,64,36,2
2103,84.7522177696228,63,56,56,85,111,57,65,36,2
2104,84.76790571212769,63,55,52,76,106,53,61,35,2
2105,84.79063248634338,54,48,46,71,89,45,56,35,2
2106,84.81251907348633,52,46,45,70,81,39,44,33,2
2107,84.82838487625122,51,41,42,72,79,38,40,35,2
2108,84.8501648902893,41,36,43,68,75,37,37,34,2
2109,84.87278747558594,39,31,43,66,69,36,34,33,2
2110,84.8870096206665,40,35,46,72,76,39,38,39,2
2111,84.91025829315186,38,34,45,66,69,33,38,37,2
2112,84.93370985984802,40,37,46,79,74,45,44,34,2
2113,84.9476420879364,47,44,47,86,79,54,48,36,2
2114,84.97105526924133,49,45,46,84,79,55,46,35,2
2115,84.99303340911865,49,45,44,79,75,55,42,34,2
2116,85.00710535049438,47,43,42,84,76,57,45,37,2
2117,85.03021502494812,48,47,43,81,75,53,44,39,2
2118,85.05278635025024,44,42,39,73,65,46,42,37,2
2119,85.06704068183899,44,41,40,91,73,51,46,38,2
2120,85.09023785591125,45,47,43,99,80,51,48,39,2
2121,85.11244797706604,44,45,41,95,80,50,44,38,2
2122,85.12806344032288,38,37,40,87,81,49,41,37,2
2123,85.15051579475403,37,36,38,85,82,50,42,41,2
2124,85.17295122146606,34,39,41,73,85,47,38,42,2
2125,85.18639516830444,31,29,34,59,76,44,37,39,2
2126,85.21018815040588,34,35,36,67,82,48,42,39,2
2127,85.23206853866577,35,38,37,67,75,44,42,40,2
2128,85.24711537361145,38,39,40,70,71,44,41,38,2
2129,85.27028822898865,44,40,42,68,65,45,50,33,2
2130,85.29276514053345,46,42,46,74,67,45,49,34,2
2131,85.30704689025879,44,39,46,70,65,41,44,33,2
2132,85.3301830291748,45,41,46,72,71,42,47,29,2
2133,85.35234880447388,45,42,45,72,74,43,45,27,2
2134,85.36685013771057,40,37,37,70,67,39,35,28,2
2135,85.39042210578918,45,43,42,69,69,44,41,30,2
2136,85.4135434627533,47,45,42,73,66,48,43,30,2
2137,85.42755460739136,49,43,41,68,60,46,38,32,2
2138,85.45789933204651,47,42,38,67,60,41,39,33,2
2139,85.47277092933655,45,43,43,73,71,45,43,34,2
2140,85.49546813964844,45,36,34,72,69,40,40,32,2
2141,85.51031184196472,43,34,35,67,70,38,40,35,2
2142,85.53271317481995,39,33,34,64,72,38,39,36,2
2143,85.55594182014465,35,30,34,71,76,38,36,39,2
2144,85.57030153274536,35,29,30,67,67,35,32,38,2
2145,85.59293127059937,30,31,33,66,65,36,33,37,2
2146,85.6154317855835,30,33,31,62,58,32,32,35,2
2147,85.6302285194397,31,32,32,62,55,32,33,33,2
2148,85.65284943580627,33,37,40,60,63,34,38,33,2
2149,85.67536306381226,38,41,42,62,74,35,43,33,2
2150,85.69016623497009,35,37,40,60,71,31,37,35,2
2151,85.71295237541199,43,38,46,69,75,33,42,32,2
2152,85.73556876182556,43,38,47,81,81,34,45,34,2
2153,85.74974226951599,44,36,41,72,67,34,43,28,2
2154,85.7730553150177,39,31,37,77,59,34,40,30,2
2155,85.79481649398804,44,33,40,83,68,37,42,27,2
2156,85.81091928482056,41,36,37,80,75,38,42,28,2
2157,85.83214211463928,48,41,38,73,75,40,42,26,2
2158,85.85477089881897,46,41,41,87,81,41,41,30,2
2159,85.87046194076538,49,47,47,97,91,46,46,30,2
2160,85.89264416694641,47,45,44,93,84,45,46,31,2
2161,85.91555523872375,46,40,39,93,79,44,43,32,2
2162,85.92982935905457,41,37,37,93,75,42,41,37,2
2163,85.952219247818,46,36,36,84,75,42,44,36,2
2164,85.97555232048035,47,32,39,84,76,38,42,36,2
2165,85.98962736129761,49,35,44,89,83,41,43,36,2
2166,86.01285481452942,46,36,47,87,82,41,41,38,2
2167,86.03498601913452,43,33,46,87,82,39,42,33,2
2168,86.0496289730072,44,36,43,86,78,37,40,33,2
2169,86.07282948493958,44,39,47,78,75,35,47,33,2
2170,86.09558153152466,39,38,45,71,68,32,44,34,2
2171,86.10953402519226,45,40,45,81,79,39,49,32,2
2172,86.13257360458374,71,47,49,100,108,64,64,39,2
2173,86.15499639511108,73,47,50,101,109,64,65,40,2
2174,86.17022848129272,69,44,40,96,101,62,58,41,2
2175,86.19959497451782,73,45,40,108,114,67,64,40,2
2176,86.21556901931763,74,44,39,106,109,65,62,38,2
2177,86.22960948944092,51,36,32,87,80,45,44,33,2
2178,86.25279235839844,53,33,33,91,81,45,45,33,2
2179,86.27514719963074,57,35,37,87,79,49,48,31,2
2180,86.28911304473877,54,37,38,79,61,43,40,32,2
2181,86.3126392364502,50,37,42,70,63,41,43,33,2
2182,86.33537125587463,51,41,45,73,64,39,44,34,2
2183,86.34949350357056,45,39,42,62,60,40,42,30,2
2184,86.37212681770325,43,40,46,66,59,37,40,40,2
2185,86.39540767669678,41,38,43,71,71,38,42,43,2
2186,86.41804051399231,40,36,36,70,64,39,36,44,2
2187,86.43329548835754,40,32,38,67,72,43,36,43,2
2188,86.45557069778442,38,33,40,71,71,41,36,44,2
2189,86.47769045829773,38,31,36,67,74,40,34,35,2
2190,86.49223470687866,50,41,48,80,101,52,41,32,2
2191,86.5151720046997,54,47,55,83,106,54,47,31,2
2192,86.53770089149475,52,48,54,84,99,53,47,32,2
2193,86.5528211593628,51,48,52,84,101,53,46,31,2
2194,86.57547879219055,50,47,50,89,103,58,48,30,2
2195,86.59894919395447,39,35,39,69,70,50,44,32,2
2196,86.61261415481567,32,30,33,68,63,48,37,34,2
2197,86.63530349731445,34,33,33,70,64,44,39,34,2
2198,86.65745782852173,38,34,32,74,69,46,41,37,2
2199,86.67267656326294,45,40,40,86,80,46,54,39,2
2200,86.69491243362427,46,41,42,91,81,45,56,40,2
2201,86.71861720085144,52,43,44,91,82,45,59,39,2
2202,86.7401795387268,52,40,45,88,82,47,57,38,2
2203,86.7556734085083,52,40,45,91,78,44,58,40,2
2204,86.7776529788971,56,41,41,87,69,45,56,40,2
2205,86.79275465011597,56,43,43,83,64,42,53,38,2
2206,86.81517243385315,56,43,42,93,80,52,58,38,2
2207,86.84488892555237,57,43,43,94,88,55,62,40,2
2208,86.85210824012756,55,42,43,86,87,56,61,36,2
2209,86.87525463104248,46,34,42,70,78,50,52,34,2
2210,86.89772176742554,54,43,48,93,101,59,58,33,2
2211,86.91201329231262,51,43,45,80,87,52,50,30,2
2212,86.9354817867279,48,41,42,79,79,47,47,29,2
2213,86.95758199691772,48,42,44,81,80,45,47,30,2
2214,86.97241806983948,49,42,45,85,86,45,48,30,2
2215,86.99580454826355,42,37,41,65,78,40,45,31,2
2216,87.01827001571655,39,34,40,66,77,40,44,31,2
2217,87.03208661079407,38,36,40,79,87,42,44,30,2
2218,87.05523610115051,40,38,43,86,94,47,44,31,2
2219,87.07763957977295,37,39,40,87,90,45,44,33,2
2220,87.09218835830688,30,33,32,80,72,37,37,33,2
2221,87.11509299278259,34,43,41,91,88,37,40,35,2
2222,87.13769865036011,40,46,45,94,94,40,40,39,2
2223,87.15200471878052,42,46,40,90,87,35,42,39,2
2224,87.17510104179382,44,46,42,86,87,39,40,37,2
2225,87.20508480072021,44,47,50,91,93,44,44,43,2
2226,87.21192049980164,43,39,45,81,81,43,43,41,2
2227,87.23516941070557,38,34,41,71,63,38,41,38,2
2228,87.25794434547424,31,30,45,66,62,40,39,39,2
2229,87.2721779346466,31,28,47,68,60,36,39,40,2
2230,87.29673385620117,33,31,42,76,62,36,41,34,2
2231,87.3176486492157,38,35,49,92,71,41,47,38,2
2232,87.33993554115295,38,34,48,90,71,42,48,35,2
2233,87.356360912323,41,37,43,89,73,44,47,33,2
2234,87.37708306312561,46,43,44,99,86,45,49,32,2
2235,87.39977598190308,46,40,43,91,84,44,42,30,2
2236,87.41704988479614,44,38,38,84,79,43,39,26,2
2237,87.44469404220581,48,43,42,94,89,44,40,29,2
2238,87.4597749710083,50,43,46,115,100,42,43,32,2
2239,87.47667980194092,44,38,44,108,87,40,38,33,2
2240,87.50476861000061,44,42,46,115,90,38,44,33,2
2241,87.51960372924805,44,41,45,112,85,33,43,33,2
2242,87.53662753105164,43,40,41,105,76,34,44,34,2
2243,87.55693507194519,38,39,40,83,61,33,41,31,2
2244,87.57956504821777,40,42,46,86,69,36,45,32,2
2245,87.5964002609253,43,41,46,85,67,41,43,36,2
2246,87.61687994003296,39,43,44,84,71,43,42,35,2
2247,87.63883519172668,36,42,47,86,70,41,38,36,2
2248,87.65683817863464,39,43,45,86,67,42,37,38,2
2249,87.67726826667786,41,45,41,86,67,44,39,39,2
2250,87.69895553588867,36,42,38,76,66,42,37,35,2
2251,87.72297596931458,37,41,38,78,65,39,35,37,2
2252,87.736980676651,42,45,43,87,71,44,44,36,2
2253,87.75941896438599,43,43,43,91,75,45,50,34,2
2254,87.77623653411865,43,39,43,85,77,43,51,34,2
2255,87.7972481250763,46,44,46,87,80,45,52,40,2
2256,87.8195264339447,45,42,46,81,79,47,54,41,2
2257,87.83571887016296,43,39,42,72,82,45,50,43,2
2258,87.85705900192261,43,46,46,89,94,49,52,44,2
2259,87.87939786911011,53,52,48,98,101,57,57,43,2
2260,87.89633059501648,56,52,47,97,95,54,56,39,2
2261,87.91690063476562,57,52,48,99,92,53,53,39,2
2262,87.93937110900879,56,50,44,97,88,50,56,35,2
2263,87.95588660240173,55,43,37,77,69,45,51,33,2
2264,87.97706174850464,52,41,40,71,60,44,49,36,2
2265,88.00192713737488,51,40,40,67,62,47,51,37,2
2266,88.01597690582275,51,45,40,78,77,50,53,38,2
2267,88.03698563575745,53,46,41,84,81,58,50,37,2
2268,88.05952525138855,52,47,44,86,84,62,51,37,2
2269,88.07662773132324,42,44,39,81,82,55,45,35,2
2270,88.0982506275177,49,47,44,97,89,59,50,32,2
2271,88.11965298652649,64,47,48,94,91,63,60,30,2
2272,88.1367609500885,74,50,53,91,92,59,62,32,2
2273,88.15714263916016,84,56,57,107,104,60,62,32,2
2274,88.17942261695862,86,56,59,112,108,63,64,29,2
2275,88.2012882232666,85,58,58,106,105,62,63,30,2
2276,88.2168972492218,78,58,57,103,101,59,57,29,2
2277,88.24032020568848,68,57,51,100,99,57,57,27,2
2278,88.25571513175964,59,55,52,90,97,51,54,27,2
2279,88.27839946746826,56,51,50,87,94,50,53,28,2
2280,88.30072784423828,51,47,47,80,92,48,52,32,2
2281,88.33036470413208,49,46,50,80,87,46,48,34,2
2282,88.33723831176758,52,45,56,85,91,47,47,33,2
2283,88.36040329933167,52,43,52,79,77,49,47,37,2
2284,88.3822340965271,53,44,51,75,72,45,44,41,2
2285,88.39683198928833,54,44,53,79,70,42,43,41,2
2286,88.4192316532135,56,45,51,78,73,45,46,43,2
2287,88.44258046150208,55,50,48,76,81,48,49,45,2
2288,88.45716381072998,58,49,51,73,81,46,50,42,2
2289,88.4796884059906,57,49,53,73,84,48,51,37,2
2290,88.50208830833435,59,50,52,68,81,48,50,34,2
2291,88.51740431785583,56,46,51,62,74,44,48,32,2
2292,88.53921914100647,51,41,48,60,62,41,44,32,2
2293,88.56186103820801,54,40,46,73,74,45,49,31,2
2294,88.57721471786499,59,44,50,90,84,50,50,35,2
2295,88.59937238693237,63,47,55,96,95,53,58,35,2
2296,88.62191534042358,60,48,53,98,96,53,57,35,2
2297,88.63927125930786,65,50,55,110,104,52,63,35,2
2298,88.66081428527832,61,48,53,104,101,52,60,34,2
2299,88.682537317276,62,48,50,97,110,54,66,34,2
2300,88.70085430145264,54,43,43,93,102,51,58,34,2
2301,88.7190260887146,56,40,44,96,103,50,57,35,2
2302,88.74202537536621,52,35,39,77,93,49,50,35,2
2303,88.75863838195801,54,40,41,77,95,56,52,37,2
2304,88.77975535392761,52,43,40,82,78,53,47,36,2
2305,88.80215692520142,50,42,38,81,77,56,46,36,2
2306,88.8189628124237,51,47,41,81,83,57,47,34,2
2307,88.83922719955444,52,51,47,78,91,62,49,32,2
2308,88.86174941062927,53,49,49,79,85,53,45,33,2
2309,88.87772512435913,53,47,47,73,87,55,47,31,2
2310,88.90039157867432,53,50,52,72,91,54,49,31,2
2311,88.92154216766357,51,47,51,72,87,52,49,36,2
2312,88.93933439254761,59,46,47,83,94,51,54,39,2
2313,88.96162033081055,54,44,42,80,96,52,59,38,2
2314,88.9821355342865,52,39,44,79,92,49,55,37,2
2315,88.99874973297119,51,35,38,82,87,46,53,38,2
2316,89.02021813392639,49,35,38,82,90,49,52,35,2
2317,89.04183840751648,35,36,36,79,76,43,45,31,2
2318,89.05885100364685,36,36,42,81,70,43,35,36,2
2319,89.07947492599487,34,38,39,79,74,50,38,37,2
2320,89.10190510749817,36,40,40,75,77,52,43,38,2
2321,89.11891889572144,41,43,39,71,76,53,45,39,2
2322,89.13968563079834,41,40,42,66,76,52,46,39,2
2323,89.16188073158264,43,41,43,73,97,49,46,37,2
2324,89.17900705337524,46,44,48,72,96,38,46,37,2
2325,89.19877123832703,45,40,50,81,98,42,46,36,2
2326,89.2240743637085,44,39,54,96,101,39,50,35,2
2327,89.24437689781189,47,40,53,98,99,41,51,37,2
2328,89.25960421562195,44,38,47,96,86,46,52,36,2
2329,89.28400588035583,42,35,42,95,81,47,51,37,2
2330,89.30440711975098,42,36,43,90,80,46,51,37,2
2331,89.31941747665405,48,40,45,104,97,50,50,40,2
2332,89.342209815979,54,48,54,111,110,61,48,38,2
2333,89.3647813796997,53,47,54,105,101,58,48,37,2
2334,89.37917065620422,51,45,54,104,101,56,44,34,2
2335,89.4018132686615,52,52,59,118,111,59,42,33,2
2336,89.42452645301819,45,50,54,97,101,57,39,27,2
2337,89.43935942649841,38,43,45,87,88,46,40,24,2
2338,89.46179676055908,38,44,50,92,95,44,40,26,2
2339,89.4846978187561,38,43,50,93,95,44,40,26,2
2340,89.49926495552063,39,37,46,76,81,41,38,25,2
2341,89.5213873386383,40,40,53,92,79,42,42,27,2
2342,89.5453028678894,43,41,54,92,81,39,44,32,2
2343,89.55906224250793,50,41,52,88,77,44,46,32,2
2344,89.58184742927551,58,43,54,90,79,46,50,35,2
2345,89.60468292236328,58,46,54,90,77,42,49,38,2
2346,89.6198422908783,55,42,49,74,86,43,45,41,2
2347,89.64222955703735,56,46,49,80,95,57,48,39,2
2348,89.66563963890076,52,49,52,84,102,56,54,39,2
2349,89.67926049232483,45,47,50,80,104,57,54,36,2
2350,89.70164394378662,49,49,56,89,120,65,60,36,2
2351,89.72442746162415,61,55,59,94,111,66,62,38,2
2352,89.73948383331299,61,53,60,94,107,61,60,38,2
2353,89.76159453392029,67,55,59,107,107,63,56,41,2
2354,89.78437733650208,74,60,67,123,110,61,56,41,2
2355,89.80050206184387,70,55,60,119,93,52,52,40,2
2356,89.82144093513489,68,53,60,121,96,47,53,37,2
2357,89.84474182128906,64,52,57,117,91,43,50,35,2
2358,89.85945081710815,58,50,59,107,85,40,49,35,2
2359,89.8819649219513,49,47,51,87,81,43,51,34,2
2360,89.90393590927124,46,45,48,78,78,44,47,33,2
2361,89.91977787017822,39,40,42,62,68,46,47,34,2
2362,89.94124484062195,41,39,40,57,67,46,48,35,2
2363,89.96881341934204,47,36,38,61,77,56,52,35,2
2364,89.97903275489807,52,39,40,64,75,55,52,35,2
2365,90.00196170806885,56,44,47,78,91,56,54,40,2
2366,90.0246262550354,58,44,49,86,97,53,50,39,2
2367,90.03959250450134,57,42,50,87,97,52,49,40,2
2368,90.0617265701294,50,41,46,83,88,43,43,38,2
2369,90.08544826507568,51,41,47,81,85,42,40,37,2
2370,90.0990777015686,54,38,43,69,71,42,40,33,2
2371,90.1225745677948,63,45,51,73,69,41,46,31,2
2372,90.14458775520325,65,47,50,75,65,39,47,31,2
2373,90.16010236740112,72,54,53,77,73,42,54,34,2
2374,90.18253016471863,68,50,50,77,84,54,60,37,2
2375,90.20486068725586,64,52,48,87,88,56,62,39,2
2376,90.22677326202393,53,46,36,78,82,56,61,41,2
2377,90.24134373664856,52,46,40,79,84,57,59,39,2
2378,90.26448941230774,42,39,36,73,73,52,52,38,2
2379,90.28679585456848,41,38,35,72,63,38,45,36,2
2380,90.30164313316345,36,33,37,58,51,34,38,37,2
2381,90.3237612247467,34,32,39,57,53,33,33,37,2
2382,90.34694623947144,33,34,41,53,48,34,37,39,2
2383,90.36203670501709,42,37,45,68,69,41,40,39,2
2384,90.38457942008972,57,49,55,80,91,53,55,38,2
2385,90.40688729286194,62,52,57,84,95,56,61,38,2
2386,90.42236304283142,69,54,58,91,99,56,64,36,2
