,time,chanel1,chanel2,chanel3,chanel4,chanel5,chanel6,chanel7,chanel8,position
0,11.221346855163574,39,33,44,152,81,76,219,64,2
1,11.245496988296509,39,30,40,136,76,73,206,64,2
2,11.273613452911377,35,26,35,136,83,74,214,59,2
3,11.283273458480835,39,29,38,146,79,70,222,41,2
4,11.28976035118103,38,29,41,144,73,58,197,38,2
5,11.291043996810913,40,35,45,133,66,61,196,38,2
6,11.296623706817627,40,36,45,150,78,65,201,39,2
7,11.303409337997437,40,35,46,155,84,71,216,35,2
8,11.310905694961548,36,35,46,131,86,78,195,37,2
9,11.319064378738403,33,35,45,135,84,77,189,37,2
10,11.326012134552002,34,30,44,156,90,72,178,34,2
11,11.333486795425415,35,31,46,149,87,72,189,34,2
12,11.356767892837524,40,33,45,145,73,74,175,42,2
13,11.371366024017334,39,30,40,144,67,70,185,44,2
14,11.393954753875732,39,29,41,192,69,70,181,44,2
15,11.416721820831299,38,29,40,188,86,71,181,45,2
16,11.431050777435303,39,29,38,187,85,74,230,48,2
17,11.453904867172241,41,32,40,187,85,62,230,48,2
18,11.476690769195557,39,34,43,195,99,56,207,44,2
19,11.491059303283691,38,34,38,164,101,56,207,43,2
20,11.513549089431763,38,33,34,152,82,56,210,44,2
21,11.53711748123169,36,36,36,147,80,56,170,43,2
22,11.551060438156128,29,33,32,148,86,64,178,39,2
23,11.573503255844116,31,30,33,142,72,67,183,41,2
24,11.59663724899292,30,31,35,141,106,71,183,41,2
25,11.611010789871216,29,35,40,140,110,73,182,41,2
26,11.633867979049683,28,32,44,148,121,91,239,43,2
27,11.656605958938599,30,32,46,149,117,84,220,44,2
28,11.671004295349121,31,34,44,146,119,82,217,43,2
29,11.693596124649048,31,32,46,122,87,80,222,44,2
30,11.71678900718689,33,30,42,118,82,79,223,44,2
31,11.731030464172363,33,35,38,122,65,51,128,45,2
32,11.753724098205566,31,34,37,130,69,48,105,41,2
33,11.776937484741211,31,33,39,145,64,72,195,41,2
34,11.791362524032593,44,38,38,140,70,72,225,54,2
35,11.81325626373291,51,36,36,138,67,72,229,59,2
36,11.836822748184204,50,31,34,132,64,70,228,56,2
37,11.85100531578064,50,29,30,130,65,71,228,56,2
38,11.873587131500244,48,32,29,122,72,47,157,56,2
39,11.896801471710205,38,26,30,120,65,45,132,46,2
40,11.919256210327148,28,26,34,123,78,53,166,39,2
41,11.933444261550903,28,28,38,137,79,55,179,40,2
42,11.956753253936768,29,28,38,156,76,54,179,39,2
43,11.979207754135132,33,25,42,148,92,56,176,39,2
44,11.993029117584229,31,25,40,151,91,52,151,37,2
45,12.017016410827637,31,24,37,177,87,41,95,33,2
46,12.039288759231567,31,25,33,165,96,86,219,34,2
47,12.053779125213623,39,32,38,153,98,91,236,45,2
48,12.076231241226196,38,30,33,148,83,91,242,48,2
49,12.099644422531128,39,31,31,145,81,91,244,48,2
50,12.113652229309082,38,29,33,106,75,92,256,46,2
51,12.136891603469849,40,31,35,108,58,52,149,50,2
52,12.159332752227783,33,27,37,119,65,40,123,42,2
53,12.173881769180298,33,28,39,130,61,54,154,41,2
54,12.204153299331665,32,27,41,131,78,64,165,41,2
55,12.219870567321777,34,31,41,131,79,71,170,47,2
56,12.233609676361084,29,27,38,146,80,71,166,40,2
57,12.25685429573059,30,30,41,125,82,75,167,41,2
58,12.279408931732178,29,29,38,113,86,69,153,38,2
59,12.293703079223633,39,31,38,104,69,68,166,40,2
60,12.316777467727661,38,28,37,132,72,59,145,33,2
61,12.339225053787231,39,28,39,118,76,58,144,35,2
62,12.353703737258911,37,25,31,113,67,55,139,32,2
63,12.376051902770996,36,25,31,112,68,49,123,30,2
64,12.399450540542603,29,23,28,119,74,44,118,27,2
65,12.41358208656311,29,26,30,90,70,44,138,32,2
66,12.436872005462646,30,34,36,133,79,48,149,38,2
67,12.459511756896973,30,34,37,133,76,49,154,40,2
68,12.473669290542603,29,35,37,140,68,54,155,41,2
69,12.49679160118103,25,35,39,136,62,49,130,42,2
70,12.519228458404541,28,34,42,142,72,65,171,41,2
71,12.533575296401978,26,26,39,133,59,61,181,35,2
72,12.556952714920044,25,26,42,141,64,59,180,35,2
73,12.579328060150146,29,30,44,145,66,61,179,41,2
74,12.59358263015747,35,31,43,155,70,62,180,43,2
75,12.617126226425171,34,29,40,149,57,44,123,41,2
76,12.639768600463867,35,29,39,144,70,45,88,39,2
77,12.65407919883728,39,29,36,134,69,53,146,39,2
78,12.676069259643555,38,28,32,126,68,59,173,33,2
79,12.699524879455566,34,25,31,126,61,61,182,34,2
80,12.714018821716309,32,27,36,153,68,60,181,33,2
81,12.736070156097412,32,29,36,142,63,59,183,36,2
82,12.75920295715332,30,31,40,148,67,54,141,36,2
83,12.77391004562378,33,31,39,153,69,50,164,39,2
84,12.7968111038208,33,32,39,146,71,52,169,37,2
85,12.819205284118652,35,30,37,143,76,55,170,38,2
86,12.833600282669067,37,28,35,137,75,59,173,37,2
87,12.856443643569946,36,23,28,133,71,61,180,40,2
88,12.879255533218384,32,22,30,157,69,55,125,36,2
89,12.901846885681152,31,25,34,153,73,57,154,36,2
90,12.916847944259644,30,25,30,131,63,54,160,37,2
91,12.939661741256714,32,25,35,164,55,55,177,39,2
92,12.96201229095459,32,26,38,172,53,50,170,36,2
93,12.976081371307373,32,28,39,145,55,55,189,36,2
94,12.999508619308472,33,28,40,149,60,57,185,37,2
95,13.022075653076172,33,30,39,148,62,62,187,35,2
96,13.036384105682373,28,34,40,110,59,60,167,31,2
97,13.058881998062134,35,34,42,112,63,70,185,39,2
98,13.081790685653687,41,35,43,119,65,76,204,41,2
99,13.096428871154785,40,33,38,114,66,68,182,40,2
100,13.119388818740845,40,32,41,117,65,67,180,42,2
101,13.141967535018921,39,28,35,114,70,67,183,43,2
102,13.156105756759644,33,28,37,135,75,58,165,39,2
103,13.17953085899353,29,26,36,139,76,71,181,37,2
104,13.20186161994934,28,25,37,142,73,77,191,36,2
105,13.216151237487793,28,27,37,150,78,75,185,35,2
106,13.238731145858765,27,29,40,157,95,77,193,36,2
107,13.26234483718872,34,29,38,135,88,87,235,41,2
108,13.276205778121948,30,28,36,126,85,74,199,40,2
109,13.299824237823486,34,28,35,134,81,69,184,40,2
110,13.322103023529053,36,28,38,135,79,69,185,44,2
111,13.33640718460083,36,24,39,125,65,65,173,41,2
112,13.359247922897339,30,23,37,122,65,50,113,33,2
113,13.381848096847534,30,23,37,124,63,52,136,33,2
114,13.396241188049316,37,28,41,134,69,57,146,48,2
115,13.41961932182312,38,26,39,129,77,57,144,45,2
116,13.441861629486084,39,29,35,127,66,60,145,46,2
117,13.456037521362305,40,32,35,126,70,64,172,50,2
118,13.479744911193848,43,32,34,151,71,54,140,52,2
119,13.501872301101685,35,27,30,176,74,49,127,44,2
120,13.517125606536865,34,28,29,182,63,61,170,44,2
121,13.539409399032593,34,27,32,179,63,74,209,46,2
122,13.562096118927002,32,25,32,180,60,71,188,44,2
123,13.576161623001099,31,26,35,164,63,69,183,42,2
124,13.599271297454834,33,26,36,123,55,79,232,38,2
125,13.621426582336426,34,26,36,119,52,72,219,37,2
126,13.636426448822021,35,25,35,119,52,61,212,39,2
127,13.659388780593872,41,26,33,114,58,75,228,45,2
128,13.681841373443604,43,26,35,125,65,77,236,53,2
129,13.69709038734436,41,26,37,134,72,85,238,56,2
130,13.719833135604858,45,27,40,147,79,86,235,57,2
131,13.741992235183716,43,32,41,155,86,85,211,56,2
132,13.756208419799805,38,34,43,168,85,88,231,51,2
133,13.779528379440308,49,33,41,155,78,92,249,52,2
134,13.802018404006958,56,34,37,141,67,87,256,51,2
135,13.823215246200562,56,32,35,127,61,106,294,56,2
136,13.845734596252441,61,31,35,129,57,111,296,59,2
137,13.868689060211182,62,30,30,119,57,112,309,58,2
138,13.89858603477478,51,31,35,131,54,109,301,53,2
139,13.92130732536316,44,32,38,131,70,120,282,52,2
140,13.94552493095398,46,35,38,116,68,107,242,60,2
141,13.973691940307617,41,31,36,111,65,116,276,56,2
142,13.996340036392212,39,30,42,129,72,106,236,59,2
143,14.018557071685791,41,30,39,121,74,107,229,59,2
144,14.04870080947876,47,34,39,120,65,141,345,70,2
145,14.078752279281616,41,33,39,119,67,142,348,65,2
146,14.095593690872192,41,34,41,146,89,140,354,68,2
147,14.116086483001709,48,35,38,128,82,144,370,74,2
148,14.131266355514526,49,36,42,121,84,148,382,85,2
149,14.146194696426392,47,33,41,118,84,109,283,79,2
150,14.161136388778687,46,33,40,125,83,102,273,74,2
151,14.18359923362732,50,35,44,84,86,96,251,73,2
152,14.19861102104187,45,36,47,103,93,108,261,66,2
153,14.215429067611694,43,35,45,108,93,109,270,63,2
154,14.236100673675537,39,36,51,180,167,101,250,59,2
155,14.25101637840271,50,44,62,248,227,109,251,60,2
156,14.259372472763062,49,42,60,267,229,113,271,64,2
157,14.266059398651123,55,43,59,264,230,101,255,69,2
158,14.281831979751587,59,43,57,262,232,109,255,58,2
159,14.303935766220093,59,46,52,226,201,107,249,59,2
160,14.319026470184326,53,40,49,180,188,108,244,63,2
161,14.341870546340942,53,42,51,161,184,107,227,69,2
162,14.364118814468384,47,43,53,152,181,106,221,79,2
163,14.378051996231079,41,45,57,154,184,113,201,77,2
164,14.40216326713562,38,41,61,167,168,113,198,74,2
165,14.424314498901367,35,38,54,153,113,104,196,69,2
166,14.438708543777466,31,39,51,161,111,94,157,64,2
167,14.468505144119263,28,34,47,167,115,110,171,46,2
168,14.491177558898926,33,34,46,188,129,92,147,54,2
169,14.51551342010498,33,33,47,215,152,92,155,56,2
170,15.023115158081055,92,64,35,267,116,62,89,119,1
171,15.047245979309082,92,61,38,297,115,65,90,122,1
172,15.06122612953186,91,57,32,231,90,60,88,120,1
173,15.08358883857727,57,46,38,246,89,54,68,104,1
174,15.106369972229004,55,44,44,324,96,46,57,91,1
175,15.121478796005249,51,42,53,342,110,46,55,88,1
176,15.143693923950195,49,38,49,323,117,49,51,89,1
177,15.173853635787964,50,44,53,341,127,50,57,88,1
178,15.180734395980835,64,69,60,397,144,52,58,71,1
179,15.206544399261475,66,74,59,345,144,57,65,69,1
180,15.226165294647217,70,78,55,350,152,62,68,71,1
181,15.241334199905396,68,81,56,348,146,56,68,75,1
182,15.263494968414307,68,82,56,345,147,55,64,75,1
183,15.286095380783081,51,63,46,288,140,57,66,76,1
184,15.301148414611816,54,57,45,296,143,56,63,85,1
185,15.324362516403198,65,52,46,260,125,49,66,103,1
186,15.346113681793213,74,59,47,250,143,52,72,100,1
187,15.361163854598999,77,59,48,266,173,59,74,105,1
188,15.38369607925415,77,59,52,268,171,57,76,103,1
189,15.406620979309082,73,58,50,274,183,54,72,96,1
190,15.421159267425537,58,55,46,342,189,53,63,73,1
191,15.443769931793213,48,40,50,364,173,52,54,66,1
192,15.466177940368652,50,35,47,351,137,44,51,69,1
193,15.482996463775635,44,30,38,339,128,41,41,63,1
194,15.503682851791382,46,33,43,387,97,41,41,64,1
195,15.52697467803955,47,41,46,337,85,51,49,61,1
196,15.541160583496094,44,44,41,319,97,58,53,64,1
197,15.564284801483154,39,44,41,336,103,63,54,54,1
198,15.586535453796387,43,48,53,351,112,65,57,54,1
199,15.6015305519104,41,46,49,331,122,65,57,59,1
200,15.623687982559204,41,41,48,322,128,62,54,58,1
201,15.646821975708008,45,48,48,388,155,58,58,58,1
202,15.66123366355896,42,49,48,379,153,52,58,52,1
203,15.683592557907104,38,49,37,353,147,51,56,52,1
204,15.706359148025513,41,49,38,315,143,52,56,47,1
205,15.741476058959961,39,54,40,348,151,50,54,50,1
206,15.744258880615234,38,50,45,292,122,48,44,50,1
207,15.767452478408813,39,49,43,310,120,48,42,49,1
208,15.7887122631073,41,50,44,334,139,49,42,52,1
209,15.805800914764404,39,49,46,383,156,48,41,49,1
210,15.82566213607788,43,47,44,411,174,45,45,48,1
211,15.848392009735107,41,57,42,406,179,46,52,51,1
212,15.865911960601807,39,59,49,400,177,46,54,51,1
213,15.885764598846436,39,61,52,377,159,49,63,55,1
214,15.90866208076477,40,63,53,377,148,50,66,62,1
215,15.925314903259277,33,61,52,364,126,54,66,62,1
216,15.946163415908813,31,49,50,365,112,51,61,57,1
217,15.968234539031982,40,49,52,364,111,59,64,61,1
218,15.986417770385742,43,46,48,415,141,60,60,58,1
219,16.008166313171387,45,49,49,361,136,59,57,56,1
220,16.028650999069214,45,49,51,366,131,56,53,53,1
221,16.045562028884888,46,54,52,348,135,60,55,55,1
222,16.066205263137817,43,59,49,419,158,61,59,53,1
223,16.08879804611206,39,57,50,390,136,53,54,50,1
224,16.105649709701538,38,51,47,414,153,54,54,50,1
225,16.12584900856018,37,49,45,361,148,55,54,48,1
226,16.149205684661865,38,43,43,402,162,51,51,43,1
227,16.166450262069702,39,32,37,313,149,46,45,48,1
228,16.185781240463257,38,28,35,306,155,47,49,46,1
229,16.20853853225708,37,30,36,272,131,47,48,41,1
230,16.226417303085327,38,32,44,329,145,50,49,43,1
231,16.246248245239258,39,34,46,304,130,49,47,44,1
232,16.268676042556763,39,37,51,300,117,55,45,42,1
233,16.285768508911133,39,37,51,305,114,55,40,43,1
234,16.306345224380493,41,40,53,308,121,56,42,46,1
235,16.329001426696777,44,45,47,309,128,56,47,56,1
236,16.345675230026245,42,45,47,282,123,57,50,59,1
237,16.36620593070984,39,44,48,301,132,47,47,57,1
238,16.38923215866089,37,45,47,283,124,47,49,56,1
239,16.405951261520386,35,43,49,281,143,45,46,54,1
240,16.426270484924316,31,41,51,224,117,41,44,42,1
241,16.448689937591553,30,44,52,261,121,43,46,37,1
242,16.465784549713135,30,45,48,316,145,48,53,34,1
243,16.485827207565308,32,49,49,325,160,49,53,36,1
244,16.50826358795166,30,50,51,327,141,65,59,39,1
245,16.525727033615112,33,57,51,336,152,73,65,43,1
246,16.54649519920349,33,58,57,349,175,73,64,43,1
247,16.570600986480713,40,70,61,363,169,89,70,52,1
248,16.585692405700684,39,78,66,363,166,101,78,52,1
249,16.608692407608032,41,88,71,423,189,110,97,53,1
250,16.628995180130005,40,88,72,413,190,111,98,53,1
251,16.650803804397583,52,99,78,398,205,144,111,68,1
252,16.667972803115845,49,111,94,389,219,163,131,70,1
253,16.68870782852173,51,113,98,410,224,170,134,72,1
254,16.711209297180176,55,110,98,365,208,171,125,76,1
255,16.727977991104126,56,108,105,366,204,174,128,80,1
256,16.748579740524292,47,106,107,352,188,164,126,69,1
257,16.771089553833008,46,88,91,283,159,141,104,61,1
258,16.787965774536133,43,79,86,273,145,125,94,59,1
259,16.80862784385681,40,79,86,288,165,127,92,55,1
260,16.83111262321472,38,84,82,321,166,129,91,52,1
261,16.84860587120056,37,76,74,311,145,119,90,56,1
262,16.868264198303223,34,70,74,306,140,115,85,57,1
263,16.89097285270691,36,72,75,311,136,122,93,57,1
264,16.908223152160645,33,71,76,274,122,113,90,54,1
265,16.928680181503296,33,66,71,305,118,105,86,51,1
266,16.95125985145569,33,59,66,306,109,91,75,46,1
267,16.96807360649109,35,66,66,336,137,92,77,49,1
268,16.98889684677124,34,60,59,292,141,87,70,50,1
269,17.011287212371826,33,55,52,303,127,81,67,50,1
270,17.028190851211548,32,48,47,239,127,76,60,46,1
271,17.04886293411255,31,45,63,249,136,76,58,48,1
272,17.07096004486084,30,41,67,225,121,82,56,44,1
273,17.08867573738098,29,44,69,228,123,77,56,39,1
274,17.10870099067688,28,43,68,221,140,72,56,37,1
275,17.13180446624756,29,45,68,212,141,71,58,40,1
276,17.147171020507812,28,46,53,214,142,72,58,37,1
277,17.16891074180603,25,40,45,212,148,60,51,34,1
278,17.19147229194641,25,35,41,231,149,56,47,35,1
279,17.20909571647644,24,31,45,218,130,46,42,34,1
280,17.228197813034058,23,28,50,231,143,43,38,29,1
281,17.25122380256653,25,26,57,221,147,39,37,28,1
282,17.2687509059906,30,27,69,255,157,48,39,35,1
283,17.28927206993103,31,26,76,262,171,56,37,36,1
284,17.709628343582153,34,28,42,133,92,67,186,36,2
285,17.731107473373413,32,26,46,143,88,70,208,36,2
286,17.753365993499756,26,26,44,141,86,70,201,34,2
287,17.76833438873291,26,24,44,142,87,73,210,39,2
288,17.79090428352356,26,25,49,177,104,72,200,38,2
289,17.81409740447998,25,26,54,207,117,74,199,39,2
290,17.829307317733765,26,26,56,219,125,74,210,38,2
291,17.851754188537598,27,27,57,219,126,66,185,39,2
292,17.87391757965088,31,30,60,218,126,58,148,35,2
293,17.888787508010864,34,30,58,186,111,59,159,36,2
294,17.91141152381897,32,30,44,148,82,57,165,35,2
295,17.933762788772583,33,31,43,122,72,50,121,36,2
296,17.94819974899292,33,32,42,124,71,62,165,37,2
297,17.97073483467102,29,30,39,123,73,66,174,37,2
298,17.993749141693115,25,30,37,114,66,60,159,36,2
299,18.008448839187622,26,28,37,97,53,58,166,40,2
300,18.03142261505127,25,28,31,95,71,65,191,40,2
301,18.05390954017639,31,29,34,95,73,69,195,44,2
302,18.068875789642334,36,28,31,91,67,65,191,43,2
303,18.090798139572144,36,30,33,87,71,66,191,43,2
304,18.114025115966797,36,31,33,75,71,68,187,40,2
305,18.12882113456726,38,30,33,77,59,79,213,40,2
306,18.15124225616455,31,27,32,99,57,66,179,34,2
307,18.174296140670776,27,32,35,103,67,65,171,39,2
308,18.189064264297485,27,33,37,124,75,70,172,38,2
309,18.21125888824463,28,33,36,117,75,68,167,38,2
310,18.233936548233032,26,30,35,108,66,56,137,35,2
311,18.248675107955933,29,34,35,88,67,57,141,38,2
312,18.271685123443604,29,31,32,82,54,56,148,31,2
313,18.293850898742676,27,28,27,60,35,47,144,33,2
314,18.30882215499878,33,38,39,82,61,51,141,40,2
315,18.331215858459473,33,38,40,85,65,59,174,42,2
316,18.354114532470703,35,37,41,86,65,61,174,42,2
317,18.368854761123657,34,36,42,90,69,62,176,43,2
318,18.392106294631958,34,36,46,94,77,69,190,42,2
319,18.413724660873413,27,26,36,80,60,71,211,36,2
320,18.42884373664856,29,26,34,79,58,65,172,33,2
321,18.45137357711792,30,29,35,96,61,65,172,34,2
322,18.473941326141357,30,28,34,96,62,65,166,30,2
323,18.488709211349487,30,29,29,87,58,61,152,29,2
324,18.511708974838257,32,31,31,80,57,57,123,29,2
325,18.533917903900146,30,32,31,81,60,77,204,36,2
326,18.55736541748047,28,27,28,75,63,83,212,34,2
327,18.57136034965515,28,27,32,98,70,85,212,36,2
328,18.59402894973755,27,29,33,96,68,84,214,38,2
329,18.61626935005188,26,27,30,99,68,98,263,38,2
330,18.631253719329834,25,25,32,107,67,82,205,30,2
331,18.65337896347046,25,31,38,99,62,77,192,33,2
332,18.676551580429077,27,33,41,81,58,78,189,36,2
333,18.691391944885254,28,30,40,82,61,80,203,34,2
334,18.714231252670288,29,29,41,80,63,64,150,35,2
335,18.736396551132202,31,34,49,86,74,57,131,38,2
336,18.75142812728882,35,31,46,87,73,53,130,37,2
337,18.77389645576477,33,30,42,105,80,51,137,35,2
338,18.796348810195923,36,34,47,112,81,65,185,40,2
339,18.811199188232422,37,35,46,113,84,62,177,41,2
340,18.83379554748535,36,32,39,105,81,63,179,41,2
341,18.856568336486816,31,30,43,119,84,65,182,39,2
342,18.871453523635864,31,31,46,115,79,64,179,38,2
343,18.89397096633911,28,30,46,115,85,51,120,35,2
344,18.91636323928833,29,32,46,129,82,63,161,36,2
345,18.93122911453247,28,35,48,127,75,72,198,40,2
346,18.953916311264038,27,35,46,113,78,71,194,38,2
347,18.984689474105835,29,35,46,145,87,71,193,40,2
348,18.991755723953247,28,33,45,155,85,68,183,37,2
349,19.013671398162842,28,31,44,143,85,65,185,36,2
350,19.03619074821472,26,25,39,144,84,56,153,27,2
351,19.051138877868652,30,26,41,148,81,56,153,30,2
352,19.074039220809937,28,23,36,106,64,55,152,27,2
353,19.09653353691101,27,27,34,86,55,57,162,31,2
354,19.11149024963379,28,25,34,92,53,48,130,32,2
355,19.13420271873474,29,27,34,87,51,42,116,35,2
356,19.156833171844482,24,26,33,77,46,40,121,32,2
357,19.171597957611084,27,27,35,72,52,65,179,38,2
358,19.193774700164795,27,24,33,75,57,63,169,35,2
359,19.216392517089844,25,27,35,65,58,63,161,34,2
360,19.23123788833618,24,27,35,86,61,67,174,37,2
361,19.253837823867798,26,29,32,88,62,68,169,38,2
362,19.276841402053833,24,29,40,109,70,52,106,35,2
363,19.29147243499756,24,30,40,106,65,50,103,35,2
364,19.313958883285522,24,28,39,108,66,57,144,33,2
365,19.33578848838806,25,28,40,95,65,60,149,29,2
366,19.35133385658264,26,27,43,105,62,61,149,32,2
367,19.374054670333862,27,28,35,81,51,58,150,31,2
368,19.396371603012085,28,27,34,119,64,57,151,31,2
369,19.411201000213623,29,27,36,130,74,49,100,34,2
370,19.433998346328735,29,26,35,137,76,58,136,31,2
371,19.456278324127197,27,27,32,131,77,75,198,31,2
372,19.471267461776733,26,24,31,134,74,77,203,29,2
373,19.493807077407837,25,23,29,99,60,77,205,30,2
374,19.516465663909912,25,24,31,90,54,80,211,32,2
375,19.53900408744812,28,24,35,86,65,73,181,35,2
376,19.553913593292236,27,21,36,84,66,75,222,36,2
377,19.576390743255615,29,21,36,77,65,74,225,36,2
378,19.599525213241577,28,19,36,79,67,73,224,33,2
379,19.621644973754883,32,27,37,77,70,73,222,33,2
380,19.636248350143433,30,28,36,84,58,74,225,32,2
381,19.65900158882141,35,32,37,91,60,54,120,31,2
382,19.673967838287354,32,32,40,105,68,49,100,31,2
383,19.696316957473755,37,37,42,107,75,54,107,35,2
384,19.718886137008667,33,31,38,116,69,50,104,32,2
385,19.733797073364258,34,33,37,108,69,57,157,33,2
386,19.75680685043335,32,29,33,99,64,59,161,30,2
387,19.778936624526978,40,35,34,95,67,63,164,39,2
388,19.794696807861328,37,32,36,128,61,61,162,40,2
389,19.816269636154175,39,32,39,121,61,63,166,43,2
390,19.838828325271606,38,31,37,122,60,61,173,43,2
391,19.853811502456665,34,32,38,133,71,60,175,43,2
392,19.87632727622986,28,28,36,127,62,59,178,37,2
393,19.89923334121704,25,27,32,94,60,56,177,34,2
394,19.913793087005615,23,25,28,97,56,53,171,33,2
395,19.93642783164978,26,26,32,93,59,43,110,31,2
396,19.958851099014282,27,27,31,79,55,49,158,32,2
397,19.97430920600891,26,24,28,81,60,48,164,31,2
398,19.99631977081299,29,26,30,76,63,50,161,30,2
399,20.01882529258728,30,26,30,63,67,54,161,26,2
400,20.033891916275024,29,22,30,58,60,56,173,25,2
401,20.056773900985718,28,23,31,53,55,59,156,23,2
402,20.078893899917603,27,27,37,76,58,60,150,22,2
403,20.09378719329834,24,23,34,79,53,59,150,20,2
404,20.117103338241577,21,24,35,93,59,56,151,23,2
405,20.139673709869385,20,24,34,94,62,51,128,22,2
406,20.15420651435852,23,27,37,109,69,40,76,28,2
407,20.176790714263916,24,23,30,93,63,35,72,29,2
408,20.19893717765808,28,26,30,88,64,41,88,33,2
409,20.21383309364319,29,27,30,91,67,43,87,35,2
410,20.236478567123413,28,28,29,96,65,41,83,35,2
411,20.25886106491089,31,26,22,81,55,53,136,36,2
412,20.273963928222656,31,31,26,77,56,70,172,42,2
413,20.2963969707489,28,28,26,79,57,69,167,40,2
414,20.318984031677246,28,29,29,63,47,81,210,39,2
415,20.3339421749115,30,32,41,97,60,85,219,42,2
416,20.35652732849121,27,32,44,122,69,77,197,40,2
417,20.379236698150635,27,31,46,128,73,64,169,36,2
418,20.39397406578064,28,33,46,127,73,65,184,37,2
419,20.416682243347168,27,31,43,132,71,61,181,37,2
420,20.43833875656128,28,29,35,131,75,60,178,34,2
421,20.4616596698761,29,27,33,120,77,58,171,32,2
422,20.47647976875305,28,27,30,115,75,62,177,32,2
423,20.49886989593506,29,27,31,118,75,59,163,35,2
424,20.521489143371582,29,27,34,144,87,62,160,34,2
425,20.536511659622192,30,29,38,139,82,63,157,35,2
426,20.559035062789917,29,30,38,129,76,63,156,36,2
427,20.581400871276855,27,26,36,128,73,56,144,32,2
428,20.596322059631348,25,26,37,138,80,55,146,29,2
429,20.61909246444702,26,27,40,136,75,59,158,30,2
430,20.641531229019165,25,25,35,120,69,56,161,26,2
431,20.656408548355103,23,25,36,123,68,58,166,25,2
432,20.678800582885742,25,26,38,124,71,59,167,27,2
433,20.701359510421753,26,26,36,115,66,59,170,25,2
434,20.716298818588257,25,27,31,86,65,53,170,29,2
435,20.738868236541748,26,25,30,94,65,52,168,31,2
436,20.761773347854614,27,24,29,96,62,49,162,31,2
437,20.776451349258423,27,24,32,94,61,50,168,33,2
438,20.799012184143066,26,24,33,89,60,64,213,38,2
439,20.82175040245056,28,23,31,82,51,55,171,33,2
440,20.83627724647522,29,25,34,75,67,60,172,35,2
441,20.858956336975098,30,30,39,107,76,63,177,38,2
442,20.881389617919922,29,32,37,117,82,66,192,37,2
443,20.896836042404175,33,37,39,116,86,67,157,42,2
444,20.918766736984253,35,48,49,133,112,75,154,49,2
445,20.942017078399658,33,47,46,136,104,72,154,47,2
446,20.95683193206787,33,46,46,118,101,70,147,46,2
447,20.978835821151733,37,47,52,114,99,70,121,48,2
448,21.00191330909729,35,44,51,132,102,58,99,41,2
449,21.016470193862915,32,33,44,120,73,49,111,35,2
450,21.038501739501953,33,33,45,114,74,49,107,36,2
451,21.061664819717407,34,34,49,108,83,54,111,36,2
452,21.076905012130737,29,32,43,104,79,50,108,34,2
453,21.0988552570343,27,31,42,88,76,49,103,34,2
454,21.121718406677246,29,33,42,91,76,42,81,31,2
455,21.136444330215454,35,35,44,100,78,45,107,43,2
456,21.1592857837677,37,35,38,96,67,63,181,44,2
457,21.1815288066864,37,32,36,100,68,64,190,43,2
458,21.204696655273438,41,34,39,96,63,66,194,46,2
459,21.218865394592285,39,32,37,93,68,66,194,45,2
460,21.24151301383972,36,34,34,87,63,72,241,43,2
461,21.25686740875244,36,33,35,100,60,64,210,46,2
462,21.27887535095215,36,34,33,98,55,62,208,45,2
463,21.301365852355957,34,34,34,104,59,65,207,45,2
464,21.31635332107544,37,33,35,98,56,71,222,47,2
465,21.338996171951294,36,28,35,105,57,64,166,38,2
466,21.36135458946228,32,25,32,101,60,56,145,31,2
467,21.3763325214386,31,24,33,98,63,61,153,34,2
468,21.398946046829224,30,22,25,91,54,75,231,33,2
469,21.421498775482178,27,26,29,101,51,75,227,32,2
470,21.44475293159485,27,27,28,86,49,72,219,34,2
471,21.459483861923218,28,28,28,96,49,74,223,35,2
472,21.481828451156616,31,29,31,100,45,76,231,34,2
473,21.50414776802063,30,30,37,107,58,59,156,30,2
474,21.518865823745728,33,28,33,101,65,58,159,31,2
475,21.541523933410645,33,27,36,110,65,63,192,35,2
476,21.56468915939331,32,27,35,102,62,68,211,35,2
477,21.57889699935913,29,27,33,98,63,65,201,33,2
478,21.601419925689697,28,28,28,92,64,69,202,37,2
479,21.62469792366028,28,28,31,106,63,66,194,36,2
480,21.63902497291565,27,28,31,119,69,68,182,33,2
481,21.661496877670288,26,28,31,109,68,63,168,33,2
482,21.684648275375366,27,26,33,113,72,67,188,35,2
483,21.699206829071045,27,24,32,109,65,60,181,31,2
484,21.721532344818115,28,24,29,111,61,82,225,34,2
485,21.746253490447998,28,24,27,106,50,79,212,34,2
486,21.758429765701294,29,23,27,110,52,78,208,33,2
487,21.78144645690918,30,26,29,112,51,79,205,34,2
488,21.804610013961792,33,27,34,137,67,82,203,36,2
489,21.819148778915405,30,27,35,165,86,69,191,32,2
490,21.842069387435913,28,26,35,165,91,70,195,35,2
491,21.86596703529358,31,31,40,167,95,71,190,44,2
492,21.878893852233887,34,30,38,163,91,73,205,49,2
493,21.90157985687256,32,31,37,152,81,74,231,50,2
494,21.925772428512573,34,32,36,107,62,67,204,52,2
495,21.938769578933716,36,34,35,89,55,62,192,49,2
496,21.9614474773407,34,30,30,99,52,81,239,43,2
497,21.9847195148468,32,33,34,173,96,75,210,36,2
498,21.99895405769348,33,32,32,187,103,74,189,33,2
499,22.021453857421875,30,36,36,188,104,76,192,31,2
500,22.044718265533447,28,33,36,200,114,76,191,29,2
501,22.059073448181152,27,33,40,214,121,71,170,27,2
502,22.081435441970825,30,29,37,181,102,76,198,31,2
503,22.104148626327515,30,28,36,157,93,73,190,32,2
504,22.118576526641846,30,25,34,154,95,70,184,32,2
505,22.141037225723267,31,26,36,145,87,79,212,34,2
506,22.164762258529663,35,29,36,122,77,70,192,41,2
507,22.179008960723877,32,32,35,96,62,62,154,36,2
508,22.20150589942932,34,32,37,101,62,62,150,41,2
509,22.224867343902588,32,31,36,102,56,66,171,40,2
510,22.238868951797485,39,35,35,94,54,59,152,48,2
511,22.26205062866211,36,34,32,88,53,55,136,44,2
512,22.28462290763855,37,32,32,87,54,54,131,45,2
513,22.299150466918945,38,33,34,92,61,58,147,44,2
514,22.32181167602539,38,32,34,88,60,58,140,44,2
515,22.34460949897766,35,30,38,92,61,55,124,40,2
516,22.367353439331055,35,30,37,154,73,51,119,37,2
517,22.381564378738403,35,30,46,186,85,49,124,40,2
518,22.40465259552002,30,27,43,184,80,53,148,39,2
519,22.427171230316162,32,29,45,189,83,60,173,46,2
520,22.441970825195312,30,29,44,193,87,63,178,43,2
521,22.464595556259155,30,27,46,172,75,63,177,44,2
522,22.488325119018555,30,26,38,145,69,63,175,40,2
523,22.501840114593506,33,26,41,144,74,61,157,40,2
524,22.524534225463867,33,29,39,141,70,51,144,35,2
525,22.547401666641235,29,27,37,133,63,50,149,34,2
526,22.56139612197876,29,27,33,95,70,51,150,34,2
527,22.5846905708313,30,28,30,84,62,52,157,41,2
528,22.607117414474487,28,29,28,76,60,60,190,38,2
529,22.621502161026,31,26,31,74,61,57,177,39,2
530,22.644593715667725,33,27,28,72,61,54,168,38,2
531,22.667126178741455,36,28,29,67,51,60,202,40,2
532,22.681493043899536,34,27,28,51,61,67,221,38,2
533,22.705331563949585,36,29,27,77,61,55,188,40,2
534,22.72720718383789,33,27,23,85,64,55,176,36,2
535,22.741451501846313,31,25,24,94,63,57,177,36,2
536,22.76461958885193,29,23,27,94,63,69,205,33,2
537,22.788032293319702,29,23,29,95,61,67,186,33,2
538,22.801525354385376,26,22,32,89,71,69,180,32,2
539,22.824817180633545,26,23,33,86,71,71,182,31,2
540,22.846830129623413,32,24,36,87,71,73,217,35,2
541,22.861567974090576,34,25,36,85,69,58,171,37,2
542,22.884743690490723,36,26,41,92,63,52,165,35,2
543,22.907129287719727,37,24,39,99,49,53,171,38,2
544,22.9225914478302,37,25,40,102,53,59,186,40,2
545,22.94480848312378,37,27,43,113,55,57,150,37,2
546,22.967118978500366,37,27,41,115,57,68,176,37,2
547,22.98172664642334,35,27,36,110,59,68,180,36,2
548,23.005056858062744,36,37,48,133,95,70,174,36,2
549,23.02716374397278,38,36,46,142,95,68,166,38,2
550,23.042455434799194,37,35,46,139,97,65,159,36,2
551,23.064610242843628,38,38,48,141,99,54,111,38,2
552,23.08764386177063,39,38,50,149,100,51,100,39,2
553,23.101475477218628,36,30,38,116,68,47,115,36,2
554,23.12513303756714,34,31,41,97,65,45,99,32,2
555,23.14716601371765,30,31,38,82,63,61,151,36,2
556,23.161736011505127,28,27,37,88,66,64,158,32,2
557,23.184852838516235,25,27,35,78,66,63,157,33,2
558,23.207215785980225,29,27,35,84,69,66,157,35,2
559,23.221587657928467,28,26,32,90,68,78,209,36,2
560,23.24475359916687,28,26,31,93,62,68,182,34,2
561,23.26737689971924,28,29,31,99,62,64,175,33,2
562,23.289631128311157,29,30,29,102,58,67,188,32,2
563,23.30468726158142,27,28,29,100,55,61,180,32,2
564,23.327247381210327,27,27,28,96,53,55,159,34,2
565,23.350090742111206,28,30,29,93,62,61,169,34,2
566,23.364529371261597,27,29,33,107,62,63,169,38,2
567,23.387146472930908,25,27,38,122,67,65,167,38,2
568,23.417259216308594,29,29,38,125,71,67,169,38,2
569,23.424899578094482,31,30,39,136,84,58,129,37,2
570,23.4471914768219,31,27,38,140,85,50,102,35,2
571,23.46931290626526,32,26,35,129,81,53,134,32,2
572,23.484645128250122,33,28,28,116,75,47,121,32,2
573,23.507084846496582,34,32,36,122,84,50,149,33,2
574,23.529338121414185,34,32,38,112,75,63,187,39,2
575,23.54468584060669,35,32,39,121,66,63,197,41,2
576,23.566572904586792,40,34,41,110,67,62,191,43,2
577,23.59027886390686,40,32,41,110,72,63,194,43,2
578,23.6046781539917,34,29,34,106,67,58,168,40,2
579,23.627135515213013,34,30,31,102,61,45,135,35,2
580,23.650063514709473,33,29,32,89,64,53,159,36,2
581,23.66442346572876,27,27,27,85,61,54,155,33,2
582,23.687089443206787,28,30,34,82,67,57,150,37,2
583,23.70967388153076,29,26,36,77,53,56,153,36,2
584,23.723894357681274,29,27,37,83,57,65,190,37,2
585,23.747478246688843,33,32,39,94,70,63,175,36,2
586,23.776869773864746,35,30,40,111,75,61,165,36,2
587,23.785807132720947,36,29,33,117,69,59,172,34,2
588,23.807121992111206,41,31,36,118,74,73,227,43,2
589,23.829800128936768,40,30,36,114,77,65,199,47,2
590,23.844130516052246,38,23,31,111,73,60,188,46,2
591,23.86734890937805,39,26,33,94,70,64,199,48,2
592,23.889997243881226,40,27,37,82,70,69,229,52,2
593,23.904081344604492,39,29,38,94,66,56,173,47,2
594,23.92725944519043,38,30,37,95,63,51,168,43,2
595,23.949987649917603,39,31,37,88,56,51,172,44,2
596,23.963913440704346,37,32,38,89,55,46,156,43,2
597,23.98740315437317,34,30,36,84,51,51,147,36,2
598,24.009679079055786,34,28,32,72,61,55,158,37,2
599,24.02404475212097,37,32,37,86,63,59,162,37,2
600,24.047398805618286,36,31,36,97,69,60,155,34,2
601,24.069912910461426,36,31,35,129,73,71,193,35,2
602,24.092360019683838,36,30,34,135,74,62,163,35,2
603,24.107195377349854,37,35,35,130,71,63,151,34,2
604,24.129917860031128,34,31,30,127,68,63,144,35,2
605,24.144076824188232,35,33,32,121,70,76,206,38,2
606,24.167278289794922,32,30,30,85,67,74,189,36,2
607,24.189175844192505,33,34,33,112,73,75,194,39,2
608,24.20414090156555,31,28,31,124,69,71,200,39,2
609,24.227217197418213,28,28,32,124,74,69,199,38,2
610,24.25015878677368,27,30,34,131,91,60,137,39,2
611,24.272433042526245,29,31,33,146,96,49,111,41,2
612,24.287632703781128,29,26,32,131,92,47,104,41,2
613,24.309949159622192,29,27,32,130,100,49,91,40,2
614,24.33980107307434,30,26,33,123,96,48,88,39,2
615,24.347126960754395,37,26,30,112,71,40,92,44,2
616,24.36965298652649,37,25,31,93,63,59,147,40,2
617,24.39218807220459,35,26,32,88,70,65,154,43,2
618,24.407153367996216,40,27,33,79,63,64,160,48,2
619,24.430031776428223,43,27,31,79,62,65,160,48,2
620,24.452495336532593,39,23,31,117,70,84,245,46,2
621,24.467533588409424,40,24,32,131,71,74,222,47,2
622,24.4897940158844,45,25,33,130,73,70,217,47,2
623,24.51215648651123,40,24,31,127,74,70,218,40,2
624,24.528127670288086,38,27,39,141,83,84,270,40,2
625,24.549277544021606,38,28,40,132,84,73,205,39,2
626,24.571622133255005,36,28,41,129,84,68,205,37,2
627,24.586427688598633,32,26,39,126,78,67,201,35,2
628,24.617241859436035,33,29,39,124,71,83,244,40,2
629,24.632170915603638,34,28,36,124,71,74,196,41,2
630,24.64657759666443,31,28,33,112,65,70,185,38,2
631,24.669671773910522,35,29,34,110,71,73,190,41,2
632,24.69268536567688,33,30,37,127,70,74,206,40,2
633,24.7065007686615,31,29,37,132,72,64,166,44,2
634,24.729681730270386,28,28,32,120,61,57,161,45,2
635,24.752212047576904,27,29,37,127,62,55,162,44,2
636,24.767797470092773,24,27,36,141,74,55,157,41,2
637,24.789698123931885,24,28,35,126,74,67,210,41,2
638,24.812222242355347,26,28,37,130,75,62,201,36,2
639,24.826667308807373,26,25,37,132,80,67,202,32,2
640,24.849900484085083,29,25,34,120,83,67,211,38,2
641,24.8722403049469,28,25,32,88,65,66,220,38,2
642,24.886018991470337,30,26,34,104,72,60,174,39,2
643,24.910141944885254,29,24,37,108,76,57,166,37,2
644,24.931811094284058,29,26,40,111,71,52,163,39,2
645,24.946123838424683,30,27,40,108,65,56,181,37,2
646,24.96972918510437,44,35,45,117,78,64,214,54,2
647,24.992439031600952,44,35,46,134,86,57,205,52,2
648,25.00641179084778,45,36,42,129,82,58,215,51,2
649,25.030206203460693,47,34,39,126,80,61,228,54,2
650,25.05244755744934,49,35,42,123,79,61,222,61,2
651,25.066757202148438,41,34,40,139,88,54,175,48,2
652,25.089675664901733,39,32,36,122,75,54,165,47,2
653,25.112422227859497,36,34,36,117,72,68,208,48,2
654,25.12669801712036,36,37,41,121,84,71,214,45,2
655,25.150182247161865,36,37,45,122,88,66,193,35,2
656,25.17265748977661,32,31,42,99,64,64,192,31,2
657,25.195047855377197,34,31,42,89,66,67,202,35,2
658,25.209930896759033,35,29,41,85,70,52,144,35,2
659,25.23258924484253,35,27,39,86,66,52,130,34,2
660,25.254659414291382,31,24,34,98,64,67,180,33,2
661,25.269668102264404,30,26,33,96,67,72,189,37,2
662,25.29322052001953,31,28,38,117,77,71,184,36,2
663,25.31467628479004,30,29,39,120,76,75,191,39,2
664,25.32985281944275,28,28,37,130,70,74,204,41,2
665,25.352234601974487,27,29,36,138,85,68,188,40,2
666,25.37466263771057,30,30,38,136,85,64,183,41,2
667,25.389817237854004,31,27,33,119,72,62,178,42,2
668,25.412288904190063,35,27,32,117,76,60,171,39,2
669,25.435006380081177,34,27,34,116,79,53,131,34,2
670,25.449947357177734,36,31,40,126,74,45,86,40,2
671,25.47227644920349,34,31,39,130,74,54,111,41,2
672,25.49535369873047,33,31,40,128,77,67,146,41,2
673,25.509682178497314,33,33,43,128,82,68,154,43,2
674,25.53221344947815,33,35,42,123,81,70,161,46,2
675,25.554739475250244,33,34,42,101,84,83,194,50,2
676,25.56916379928589,35,32,47,112,90,82,211,49,2
677,25.59225821495056,33,32,47,128,98,72,188,50,2
678,25.614976406097412,30,35,48,132,89,72,182,50,2
679,25.629069566726685,30,32,49,122,86,77,197,47,2
680,25.652221202850342,30,32,46,138,74,63,167,39,2
681,25.67496919631958,28,32,41,138,74,55,115,36,2
682,25.68892765045166,27,33,44,123,71,55,112,34,2
683,25.712238073349,30,27,40,116,70,55,129,33,2
684,25.734699726104736,31,29,42,147,76,68,216,43,2
685,25.749278783798218,32,25,38,132,75,69,225,48,2
686,25.772403717041016,34,26,38,127,71,68,225,49,2
687,25.795092821121216,34,23,34,125,65,66,225,47,2
688,25.809313774108887,32,25,36,134,80,75,248,51,2
689,25.83240270614624,31,27,31,121,79,74,198,45,2
690,25.854830980300903,32,27,32,116,80,75,193,40,2
691,25.869288206100464,29,27,31,107,76,75,195,39,2
692,25.892380952835083,35,28,31,111,80,82,210,42,2
693,25.914929628372192,37,28,29,101,67,76,189,40,2
694,25.936554193496704,39,25,31,94,61,58,155,38,2
695,25.953543663024902,35,25,31,103,63,56,147,36,2
696,25.974054098129272,36,28,39,112,85,63,146,37,2
697,25.996471881866455,33,29,39,113,91,74,196,38,2
698,26.01332449913025,30,27,38,116,88,79,217,35,2
699,26.034040212631226,28,31,42,109,96,90,215,37,2
700,26.056644201278687,28,34,43,115,106,89,215,38,2
701,26.07329559326172,28,31,44,139,99,93,239,37,2
702,26.0940043926239,26,31,44,138,90,86,202,38,2
703,26.11675214767456,25,33,44,134,89,78,158,39,2
704,26.134644746780396,24,30,39,126,79,63,151,38,2
705,26.153980493545532,25,28,39,120,76,64,158,41,2
706,26.17681884765625,27,28,33,105,73,55,132,43,2
707,26.192617416381836,31,29,34,100,77,48,152,42,2
708,26.21443462371826,32,28,34,100,82,52,156,41,2
709,26.236461400985718,34,28,34,112,85,53,170,41,2
710,26.25326108932495,35,30,34,120,93,58,186,44,2
711,26.2815899848938,36,35,35,107,91,58,180,46,2
712,26.296506881713867,38,37,35,116,100,55,143,50,2
713,26.313437461853027,40,39,35,132,103,72,202,58,2
714,26.334007024765015,39,37,36,139,110,73,197,60,2
715,26.35657787322998,37,37,38,139,98,72,178,56,2
716,26.37345576286316,34,31,35,134,92,71,181,51,2
717,26.394017457962036,28,29,36,126,77,69,180,46,2
718,26.416508436203003,27,27,35,113,71,48,114,35,2
719,26.433462619781494,28,32,37,97,57,57,163,32,2
720,26.45473551750183,32,35,37,74,59,58,171,34,2
721,26.476871967315674,35,37,40,95,67,55,165,41,2
722,26.493908405303955,35,35,39,103,71,58,170,41,2
723,26.513936519622803,34,37,40,112,75,58,165,45,2
724,26.536763191223145,33,33,38,121,75,48,123,44,2
725,26.558971643447876,31,28,37,138,77,48,112,41,2
726,26.57399821281433,30,29,36,126,76,52,109,39,2
727,26.59665608406067,31,29,37,140,82,49,97,42,2
728,26.61430525779724,39,29,39,135,81,55,101,40,2
729,26.633970975875854,41,32,41,126,85,75,186,44,2
730,26.656535148620605,41,31,38,125,86,74,190,46,2
731,26.673487901687622,40,31,39,126,82,75,194,43,2
732,26.694408893585205,39,30,35,117,71,77,199,40,2
733,26.717288494110107,33,28,32,113,67,76,203,39,2
734,26.733755350112915,32,29,37,115,73,92,208,48,2
735,26.754377126693726,32,32,38,108,92,95,206,49,2
736,26.77761936187744,31,30,35,106,96,92,205,48,2
737,26.79417872428894,34,31,38,90,99,94,203,49,2
738,26.81378149986267,30,31,38,106,98,91,198,46,2
739,26.83619451522827,26,25,32,110,91,55,104,34,2
740,26.85385537147522,28,24,33,103,69,47,92,32,2
741,26.874244451522827,31,26,36,106,69,72,183,37,2
742,26.896495580673218,28,24,34,117,68,75,201,38,2
743,26.91319990158081,29,26,40,113,74,81,205,37,2
744,26.933491230010986,32,29,44,115,75,79,202,34,2
745,26.957143545150757,31,28,42,113,70,79,202,31,2
746,26.973682403564453,31,30,43,114,64,58,129,28,2
747,26.994191884994507,29,31,43,104,58,43,89,24,2
748,27.016834497451782,28,30,42,106,60,35,71,31,2
749,27.03411364555359,25,27,37,94,55,40,90,33,2
750,27.055951833724976,25,26,38,93,60,48,101,35,2
751,27.076940774917603,23,23,32,88,60,56,157,36,2
752,27.09942603111267,26,25,40,163,86,62,164,41,2
753,27.114503860473633,41,28,36,161,87,71,203,48,2
754,27.13663387298584,41,28,36,161,86,70,198,48,2
755,27.15976309776306,42,29,36,163,90,64,191,49,2
756,27.174105644226074,43,30,36,171,91,59,158,49,2
757,27.197316884994507,44,28,31,132,72,58,181,46,2
758,27.219157457351685,33,27,34,129,66,43,134,34,2
759,27.234560012817383,33,30,34,128,66,44,148,32,2
760,27.25679922103882,30,30,32,132,56,54,191,33,2
761,27.27906632423401,28,28,35,129,54,55,188,32,2
762,27.294081449508667,23,30,32,124,51,54,176,32,2
763,27.316587924957275,24,30,31,120,49,56,185,33,2
764,27.339340686798096,28,26,30,126,54,55,175,35,2
765,27.354041814804077,28,27,35,137,61,49,129,32,2
766,27.377123594284058,28,29,36,137,68,46,116,32,2
767,27.398576259613037,31,28,36,106,65,44,99,35,2
768,27.414140939712524,37,26,38,118,71,54,125,37,2
769,27.436561346054077,34,27,39,122,79,55,128,35,2
770,27.459147453308105,34,27,39,119,81,53,127,36,2
771,27.474223375320435,33,24,39,114,73,52,127,35,2
772,27.49651789665222,36,25,38,114,74,63,169,43,2
773,27.519057750701904,28,28,37,111,75,56,151,41,2
774,27.534003496170044,30,29,37,104,66,53,142,41,2
775,27.55644726753235,31,28,33,86,54,52,141,41,2
776,27.586880683898926,32,30,32,90,60,52,141,45,2
777,27.59603261947632,31,29,33,107,61,35,76,36,2
778,27.61654233932495,31,25,34,122,60,38,83,35,2
779,27.639178037643433,31,26,35,118,71,40,95,39,2
780,27.65424680709839,30,26,36,119,75,38,98,39,2
781,27.676719427108765,31,26,36,123,77,43,99,37,2
782,27.699035167694092,30,26,34,121,79,44,111,35,2
783,27.714049100875854,33,27,36,110,86,40,114,43,2
784,27.736529111862183,34,27,34,113,87,49,111,40,2
785,27.75905156135559,35,29,37,124,90,53,108,42,2
786,27.774125337600708,33,27,36,135,91,50,106,40,2
787,27.79670476913452,29,27,37,130,91,52,98,38,2
788,27.819088220596313,31,33,41,129,99,59,111,33,2
789,27.836029767990112,28,32,41,137,93,50,107,31,2
790,27.856597423553467,28,32,40,131,88,50,110,32,2
791,27.879045009613037,28,34,40,114,83,49,110,33,2
792,27.89639139175415,30,36,40,115,84,53,126,34,2
793,27.916594743728638,28,30,32,103,60,42,98,34,2
794,27.939082860946655,28,30,31,100,54,44,93,37,2
795,27.956601858139038,31,30,28,97,56,43,88,37,2
796,27.979329824447632,33,28,28,97,54,48,104,43,2
797,27.99909734725952,34,29,28,88,65,45,88,44,2
798,28.017487049102783,32,27,31,101,73,47,83,42,2
799,28.036627531051636,36,33,33,101,75,49,86,45,2
800,28.05936074256897,38,37,37,104,82,52,89,48,2
801,28.081660985946655,38,36,34,103,83,54,122,43,2
802,28.09675908088684,37,37,37,112,78,56,123,43,2
803,28.119094610214233,38,38,41,115,71,55,120,42,2
804,28.141934156417847,36,34,43,118,73,54,119,36,2
805,28.156587600708008,29,29,41,122,74,54,122,29,2
806,28.17908239364624,30,30,43,121,75,60,144,36,2
807,28.201755046844482,29,27,45,129,73,55,143,37,2
808,28.216588020324707,28,27,42,134,77,57,144,38,2
809,28.239299535751343,27,27,43,129,83,56,151,37,2
810,28.261836051940918,28,29,46,123,73,64,182,40,2
811,28.276589393615723,25,27,47,124,73,54,136,34,2
812,28.299087285995483,26,31,45,118,78,58,135,32,2
813,28.321647882461548,25,28,41,113,76,57,134,30,2
814,28.336597681045532,27,27,37,112,65,59,138,33,2
815,28.35944104194641,26,29,35,117,66,59,129,37,2
816,28.381667613983154,36,30,33,120,69,63,136,45,2
817,28.39684295654297,37,26,31,128,66,59,136,47,2
818,28.42235040664673,40,27,32,123,76,62,135,49,2
819,28.441955089569092,39,27,30,116,81,61,132,49,2
820,28.456868171691895,42,26,30,109,97,62,106,45,2
821,28.479215383529663,37,27,32,123,95,59,91,41,2
822,28.501866817474365,36,28,34,107,89,58,86,39,2
823,28.516724586486816,35,30,38,114,89,56,90,41,2
824,28.539172410964966,35,31,40,116,93,62,124,40,2
825,28.56171488761902,34,31,44,136,74,53,131,44,2
826,28.576865434646606,31,30,46,130,75,51,130,45,2
827,28.59905481338501,31,31,48,143,83,50,131,45,2
828,28.621694087982178,30,31,45,128,67,49,127,44,2
829,28.636613607406616,32,30,43,134,59,45,112,45,2
830,28.658835411071777,31,28,38,106,56,46,125,42,2
831,28.681629419326782,34,29,36,106,63,50,127,40,2
832,28.69674849510193,33,26,32,91,64,52,131,38,2
833,28.719071626663208,33,24,32,99,69,52,141,38,2
834,28.741587162017822,36,26,34,110,73,49,152,44,2
835,28.756551504135132,35,26,33,118,77,46,135,42,2
836,28.77912402153015,37,28,30,117,76,43,135,42,2
837,28.802006006240845,37,30,30,110,68,42,132,43,2
838,28.81719398498535,36,31,28,121,78,46,132,42,2
839,28.83907699584961,32,31,30,115,86,46,100,35,2
840,28.86201548576355,35,35,39,123,95,46,96,40,2
841,28.876253128051758,29,32,39,111,96,46,92,37,2
842,28.8985812664032,33,33,40,123,97,45,95,40,2
843,28.921758890151978,35,33,40,116,89,46,87,40,2
844,28.936681985855103,34,31,38,104,82,47,103,41,2
845,28.959067344665527,31,28,29,99,75,43,97,37,2
846,28.98116374015808,34,31,33,116,72,43,96,36,2
847,29.004085063934326,38,38,44,135,100,57,106,42,2
848,29.019044399261475,38,38,45,138,100,54,101,42,2
849,29.04172420501709,39,40,46,143,99,51,83,44,2
850,29.06566572189331,39,40,47,142,101,53,90,45,2
851,29.087093591690063,38,40,48,166,119,54,91,46,2
852,29.101796627044678,33,32,36,153,102,42,84,39,2
853,29.12427568435669,37,37,40,148,102,46,102,47,2
854,29.139150857925415,39,36,39,152,105,49,119,48,2
855,29.16390037536621,39,36,41,160,102,50,118,50,2
856,29.184391498565674,38,36,41,140,79,49,119,51,2
857,29.199116468429565,36,35,42,127,68,45,120,51,2
858,29.22173523902893,34,33,38,122,69,40,106,44,2
859,29.24444317817688,33,37,47,137,59,39,86,44,2
860,29.259121417999268,31,37,46,125,56,40,104,42,2
861,29.281830310821533,31,35,42,107,60,42,114,41,2
862,29.30419421195984,31,35,41,111,66,45,108,39,2
863,29.32659411430359,31,35,44,125,61,44,110,41,2
864,29.34250807762146,27,28,32,107,59,47,123,38,2
865,29.36419415473938,30,32,34,107,68,48,118,39,2
866,29.379155158996582,30,31,37,117,75,49,110,38,2
867,29.41016387939453,30,31,39,140,77,46,108,38,2
868,29.42406415939331,26,26,38,134,85,51,123,37,2
869,29.43909740447998,29,27,40,130,91,52,118,35,2
870,29.462389945983887,29,24,37,131,89,50,106,35,2
871,29.483798503875732,29,23,37,139,100,47,104,36,2
872,29.499526500701904,30,25,35,117,97,48,112,38,2
873,29.521785020828247,31,26,36,107,94,49,111,38,2
874,29.544094800949097,28,25,35,102,87,43,107,38,2
875,29.55904746055603,28,26,33,123,85,41,105,39,2
876,29.58176827430725,34,34,39,108,82,55,113,48,2
877,29.604187965393066,33,34,40,107,83,56,135,50,2
878,29.619152307510376,35,33,36,115,81,50,119,50,2
879,29.641833305358887,34,35,36,140,86,52,116,51,2
880,29.66418147087097,40,36,41,125,89,54,120,52,2
881,29.679181814193726,43,35,37,126,85,46,129,53,2
882,29.7017719745636,42,33,36,126,84,46,99,50,2
883,29.72432827949524,42,35,39,126,84,50,97,47,2
884,29.739201307296753,43,33,38,112,87,53,102,47,2
885,29.762693881988525,43,31,35,112,80,52,102,47,2
886,29.784475803375244,37,27,33,106,67,48,77,36,2
887,29.806684255599976,40,29,39,120,83,59,110,40,2
888,29.82161045074463,41,32,45,124,83,62,112,43,2
889,29.84416961669922,48,34,47,117,78,57,111,44,2
890,29.859051942825317,42,31,46,111,84,57,107,39,2
891,29.88189959526062,41,30,45,117,86,56,108,40,2
892,29.90421485900879,39,39,55,123,72,43,86,40,2
893,29.919235467910767,39,39,52,121,83,41,91,42,2
894,29.941633701324463,34,37,51,115,82,42,102,40,2
895,29.964155435562134,36,37,50,119,79,42,100,40,2
896,29.9870445728302,35,39,53,128,75,42,99,39,2
897,30.002869844436646,34,34,41,119,82,46,95,39,2
898,30.024195671081543,33,31,35,112,67,48,120,41,2
899,30.046841144561768,32,34,37,124,77,47,105,40,2
900,30.061673879623413,32,34,37,125,88,50,108,41,2
901,30.083681106567383,32,32,33,120,87,56,132,38,2
902,30.10728359222412,34,25,28,111,78,55,135,35,2
903,30.121821641921997,30,25,32,107,81,53,112,27,2
904,30.143853902816772,32,31,34,102,72,52,113,36,2
905,30.166688442230225,33,31,34,100,64,49,116,37,2
906,30.182143211364746,34,30,33,90,66,45,105,39,2
907,30.20436692237854,35,31,35,91,68,41,96,41,2
908,30.227205514907837,37,35,37,107,71,38,92,41,2
909,30.242048501968384,33,27,34,133,75,37,85,31,2
910,30.264143705368042,31,26,36,132,72,38,75,28,2
911,30.28661036491394,32,27,38,130,77,34,54,27,2
912,30.30258584022522,38,29,37,136,77,44,111,39,2
913,30.32463502883911,37,22,34,125,74,44,116,43,2
914,30.346744537353516,40,28,35,90,72,47,120,46,2
915,30.361848831176758,43,29,33,88,70,47,119,47,2
916,30.38419246673584,40,29,33,117,63,47,131,46,2
917,30.407013416290283,34,28,31,118,67,40,135,41,2
918,30.42164707183838,35,29,31,117,63,39,138,44,2
919,30.44424295425415,31,26,32,124,66,36,136,43,2
920,30.475110054016113,30,31,33,130,75,37,137,43,2
921,30.481845378875732,33,36,39,128,90,45,162,49,2
922,30.50428533554077,35,37,41,125,86,42,142,49,2
923,30.52710723876953,33,38,41,128,89,43,136,43,2
924,30.541686296463013,34,42,45,134,88,43,135,43,2
925,30.56467580795288,36,40,49,138,82,44,138,46,2
926,30.58670949935913,33,36,45,120,68,37,95,41,2
927,30.601688385009766,30,35,46,131,76,36,73,36,2
928,30.624298572540283,29,34,47,130,72,36,73,36,2
929,30.64690852165222,29,30,44,166,76,37,75,34,2
930,30.66165542602539,27,28,39,177,86,44,99,32,2
931,30.684237003326416,30,29,38,174,84,43,103,33,2
932,30.707258462905884,29,26,33,193,83,42,97,33,2
933,30.72209334373474,30,28,36,201,82,46,96,32,2
934,30.744735717773438,29,27,33,166,80,47,107,33,2
935,30.766842365264893,36,28,35,144,65,40,118,42,2
936,30.781749725341797,33,27,36,139,62,40,114,40,2
937,30.804352045059204,34,29,37,119,55,43,116,42,2
938,30.826764583587646,34,27,36,104,57,47,127,43,2
939,30.84174609184265,35,27,34,97,58,54,146,44,2
940,30.864353895187378,28,25,34,102,81,56,124,39,2
941,30.886630535125732,31,25,37,151,90,54,125,39,2
942,30.91083073616028,29,23,40,132,91,56,137,37,2
943,30.92432403564453,29,24,40,137,99,51,141,37,2
944,30.94680166244507,30,28,45,139,100,48,117,37,2
945,30.970046281814575,32,28,43,143,83,46,110,39,2
946,30.9843270778656,31,29,41,105,73,49,106,39,2
947,31.00670051574707,34,30,40,102,71,50,130,44,2
948,31.030113697052002,36,29,37,96,60,50,126,49,2
949,31.04424262046814,36,27,35,124,63,45,120,48,2
950,31.066763877868652,35,28,38,122,74,45,123,47,2
951,31.090016841888428,37,26,36,115,79,50,133,51,2
952,31.104316234588623,34,27,40,136,90,54,100,48,2
953,31.12681007385254,32,26,41,141,91,52,87,44,2
954,31.15007734298706,36,27,38,118,83,54,107,51,2
955,31.164352416992188,36,27,36,119,82,54,119,49,2
956,31.187820434570312,33,28,35,115,78,47,107,44,2
957,31.210108041763306,36,27,31,113,68,36,101,45,2
958,31.22436547279358,35,31,34,109,67,35,99,45,2
959,31.24707579612732,32,28,34,106,68,32,89,34,2
960,31.27033019065857,34,25,32,94,56,31,85,32,2
961,31.284250020980835,35,29,35,113,54,36,86,35,2
962,31.306865692138672,33,27,34,99,50,36,87,32,2
963,31.33001708984375,31,24,28,96,57,36,86,29,2
964,31.34468913078308,30,27,33,102,63,37,83,33,2
965,31.366908073425293,29,28,36,117,66,40,81,32,2
966,31.388685703277588,30,26,36,99,70,40,85,33,2
967,31.403731107711792,31,27,36,92,85,44,84,35,2
968,31.427024602890015,32,28,37,95,83,43,84,38,2
969,31.45029902458191,32,26,36,113,81,45,109,35,2
970,31.472458600997925,33,29,38,99,78,50,107,35,2
971,31.486785173416138,33,27,36,106,85,45,102,33,2
972,31.509365797042847,34,28,40,109,74,41,101,30,2
973,31.52436852455139,35,30,41,106,78,47,104,29,2
974,31.546449661254883,36,31,39,85,73,49,92,30,2
975,31.568746328353882,37,29,36,85,74,50,94,30,2
976,31.58425736427307,39,29,36,81,64,52,94,29,2
977,31.607555627822876,37,27,33,77,56,53,95,31,2
978,31.62937641143799,39,25,32,78,45,51,103,30,2
979,31.64431381225586,38,23,29,92,53,51,107,29,2
980,31.66674304008484,37,24,32,103,69,47,97,33,2
981,31.68954563140869,34,25,29,106,77,44,103,37,2
982,31.704222679138184,34,26,32,114,79,44,102,36,2
983,31.7270348072052,29,26,32,116,84,43,97,36,2
984,31.749406814575195,29,27,32,119,86,38,86,37,2
985,31.764342546463013,30,34,31,109,75,40,91,39,2
986,31.78675937652588,32,41,49,128,73,46,92,41,2
987,31.80946946144104,33,41,45,133,107,52,93,41,2
988,31.82430672645569,35,39,46,135,107,56,113,42,2
989,31.847353219985962,34,41,49,123,109,59,111,42,2
990,31.868900299072266,28,36,51,133,114,54,105,35,2
991,31.891939878463745,27,29,39,149,113,54,101,31,2
992,31.907232522964478,27,33,45,154,86,48,100,35,2
993,31.929659128189087,28,35,46,154,89,51,115,41,2
994,31.952091455459595,33,34,47,163,93,46,114,46,2
995,31.96629238128662,35,35,44,182,92,48,115,48,2
996,31.989755630493164,39,39,47,164,96,49,118,50,2
997,32.01289629936218,39,35,43,159,101,53,118,47,2
998,32.026817083358765,37,36,42,167,96,48,107,42,2
999,32.04931712150574,37,35,39,171,88,49,100,39,2
1000,32.07274127006531,36,34,40,148,87,50,99,39,2
1001,32.086700677871704,33,31,40,143,85,47,94,35,2
1002,32.109336376190186,32,30,37,143,85,42,93,34,2
1003,32.13222694396973,35,28,39,133,91,48,133,43,2
1004,32.14683175086975,32,26,38,111,87,47,141,46,2
1005,32.16933536529541,33,27,38,108,86,46,142,47,2
1006,32.193557262420654,32,24,31,114,83,45,144,47,2
1007,32.20708346366882,32,24,34,103,73,50,171,46,2
1008,32.22974109649658,29,25,37,99,68,56,148,39,2
1009,32.25247931480408,26,26,38,105,74,56,138,33,2
1010,32.26675271987915,25,28,41,112,72,57,139,32,2
1011,32.28960847854614,25,28,40,99,66,58,139,32,2
1012,32.3124577999115,28,29,40,101,71,59,128,36,2
1013,32.32677173614502,29,28,34,117,74,45,99,35,2
1014,32.34931683540344,28,27,35,128,73,48,100,34,2
1015,32.38058567047119,28,27,31,118,85,50,98,36,2
1016,32.38677167892456,31,27,35,124,94,59,117,42,2
1017,32.40938997268677,33,30,35,124,89,55,98,42,2
1018,32.43256497383118,35,28,35,116,83,55,96,40,2
1019,32.44706988334656,34,27,36,105,78,51,92,40,2
1020,32.46933364868164,34,23,33,102,61,52,98,37,2
1021,32.492459297180176,39,23,32,115,56,41,82,39,2
1022,32.50838828086853,35,20,32,119,59,41,80,41,2
1023,32.529754400253296,35,21,37,120,71,38,81,43,2
1024,32.55218577384949,39,26,34,111,72,44,100,45,2
1025,32.56640005111694,38,27,37,119,76,38,95,46,2
1026,32.59008002281189,31,27,37,117,78,49,123,39,2
1027,32.61290502548218,34,33,38,114,84,51,136,36,2
1028,32.62671875953674,33,34,36,120,74,52,135,37,2
1029,32.64933371543884,29,31,39,120,73,51,133,37,2
1030,32.67198371887207,28,34,38,129,76,53,134,36,2
1031,32.686978340148926,27,37,35,124,71,45,105,36,2
1032,32.70957899093628,28,32,33,123,63,42,86,35,2
1033,32.73239541053772,49,34,34,109,62,44,100,49,2
1034,32.747233152389526,52,35,32,125,87,45,91,49,2
1035,32.769402265548706,53,32,32,108,81,41,89,50,2
1036,32.7928581237793,54,31,32,93,80,44,99,49,2
1037,32.815064668655396,53,32,33,90,78,44,95,49,2
1038,32.829503774642944,32,29,30,132,84,48,97,35,2
1039,32.85217809677124,32,31,34,138,63,48,104,40,2
1040,32.87499237060547,34,33,37,141,64,52,115,44,2
1041,32.88936424255371,33,30,39,146,82,54,114,44,2
1042,32.91259264945984,33,29,39,147,84,56,122,42,2
1043,32.935131788253784,35,34,43,114,81,52,116,45,2
1044,32.949429988861084,36,32,40,100,84,51,107,43,2
1045,32.973140716552734,35,30,38,105,83,48,98,39,2
1046,32.995530128479004,36,29,36,108,73,43,93,40,2
1047,33.00938415527344,38,34,34,114,83,42,98,44,2
1048,33.03253197669983,38,27,29,121,80,37,90,41,2
1049,33.05500531196594,33,25,28,123,74,35,92,34,2
1050,33.06879138946533,34,33,39,121,80,40,117,41,2
1051,33.09252333641052,34,34,40,132,78,37,116,43,2
1052,33.11507487297058,29,30,45,125,70,37,102,41,2
1053,33.138123989105225,31,32,46,126,74,42,101,41,2
1054,33.15257167816162,32,33,46,131,76,45,113,41,2
1055,33.175116300582886,31,28,37,126,72,41,86,37,2
1056,33.18983316421509,32,33,41,111,70,42,85,34,2
1057,33.213632583618164,33,34,40,113,68,41,86,32,2
1058,33.235368490219116,30,32,38,107,63,39,92,32,2
1059,33.249748945236206,30,32,39,94,67,36,79,31,2
1060,33.272618770599365,29,31,41,94,63,36,80,31,2
1061,33.294853925704956,40,36,45,96,65,42,75,35,2
1062,33.30976057052612,40,34,43,98,69,48,117,36,2
1063,33.332844257354736,39,35,45,91,68,48,117,35,2
1064,33.35493779182434,40,36,46,82,60,53,118,36,2
1065,33.36928582191467,43,36,43,115,67,52,115,41,2
1066,33.39272427558899,31,24,33,108,63,49,120,36,2
1067,33.41505837440491,33,27,37,106,63,48,86,39,2
1068,33.42950749397278,33,25,33,115,73,51,85,39,2
1069,33.45272660255432,32,23,33,124,76,46,77,38,2
1070,33.4751091003418,32,26,34,94,75,48,81,36,2
1071,33.48931002616882,38,31,36,97,78,54,104,43,2
1072,33.51267433166504,35,30,32,114,76,50,110,41,2
1073,33.53514742851257,38,34,37,129,78,50,112,43,2
1074,33.54935431480408,40,34,35,123,75,54,127,48,2
1075,33.572556257247925,39,35,34,156,78,54,127,47,2
1076,33.59523129463196,36,33,33,161,78,51,116,40,2
1077,33.60943031311035,37,34,35,159,78,52,111,41,2
1078,33.63348197937012,40,32,35,163,72,49,108,42,2
1079,33.65462636947632,39,33,34,163,78,46,93,38,2
1080,33.66892409324646,37,31,34,132,73,53,118,38,2
1081,33.69326376914978,36,28,33,131,74,48,105,41,2
1082,33.71567916870117,36,28,34,137,83,49,107,41,2
1083,33.737619400024414,29,27,33,118,88,52,114,38,2
1084,33.75249671936035,29,29,35,129,87,57,125,39,2
1085,33.775073289871216,33,30,35,158,94,48,108,41,2
1086,33.79777717590332,35,33,35,152,95,48,118,44,2
1087,33.81277680397034,37,32,34,137,88,47,115,43,2
1088,33.83535623550415,39,33,33,145,86,45,103,42,2
1089,33.85788631439209,41,32,34,143,84,39,105,43,2
1090,33.8725790977478,39,31,34,109,73,39,102,39,2
1091,33.895066022872925,36,28,34,112,69,37,87,33,2
1092,33.917550563812256,33,28,34,110,67,37,85,34,2
1093,33.932425022125244,35,29,35,91,60,43,115,34,2
1094,33.97007870674133,31,27,31,85,65,45,106,34,2
1095,33.97953152656555,30,28,35,101,66,45,99,38,2
1096,33.99201679229736,31,26,36,119,63,45,98,37,2
1097,34.01529932022095,33,25,35,117,68,45,111,36,2
1098,34.03774046897888,30,25,33,137,69,48,98,37,2
1099,34.05254530906677,29,25,33,132,66,46,88,34,2
1100,34.075533866882324,29,24,32,128,70,45,88,30,2
1101,34.09804034233093,31,27,37,132,80,49,89,29,2
1102,34.111955642700195,30,29,38,134,81,55,101,32,2
1103,34.1350622177124,28,27,36,116,77,50,92,32,2
1104,34.15714645385742,30,30,38,143,83,50,93,34,2
1105,34.172203063964844,32,29,36,155,81,50,97,35,2
1106,34.19502592086792,29,28,33,135,71,49,112,37,2
1107,34.21761131286621,29,28,33,135,64,44,110,37,2
1108,34.23180437088013,33,32,42,142,66,41,108,36,2
1109,34.25502038002014,30,30,42,127,57,38,107,34,2
1110,34.27792429924011,28,30,42,111,68,41,109,40,2
1111,34.29211449623108,34,32,45,124,78,47,141,50,2
1112,34.315330505371094,36,34,44,126,79,41,125,50,2
1113,34.33815884590149,35,30,37,137,86,42,123,47,2
1114,34.35199236869812,37,34,43,130,85,45,127,48,2
1115,34.37502312660217,37,34,43,121,76,50,143,45,2
1116,34.3977837562561,32,33,39,114,68,48,108,34,2
1117,34.41203999519348,32,34,43,112,70,47,106,36,2
1118,34.43558478355408,32,34,43,92,64,45,104,38,2
1119,34.457632541656494,29,31,38,101,70,45,115,39,2
1120,34.47195887565613,30,32,41,117,67,41,99,37,2
1121,34.49801778793335,30,33,42,108,75,39,91,34,2
1122,34.51764750480652,28,30,36,114,77,41,91,30,2
1123,34.53201627731323,27,30,36,138,88,44,112,33,2
1124,34.55501079559326,28,32,38,132,89,45,113,33,2
1125,34.57792329788208,29,31,36,125,95,43,109,34,2
1126,34.591891050338745,30,29,35,158,97,45,106,39,2
1127,34.61573123931885,29,31,41,157,96,44,115,39,2
1128,34.637582302093506,29,36,47,156,99,60,137,41,2
1129,34.65198469161987,27,34,45,151,98,59,134,41,2
1130,34.6752028465271,24,35,45,160,97,62,130,41,2
1131,34.69855451583862,24,34,46,142,87,60,138,38,2
1132,34.7203311920166,24,32,43,151,92,63,144,37,2
1133,34.736098289489746,24,24,34,127,81,46,108,35,2
1134,34.757232427597046,27,26,36,135,76,46,97,36,2
1135,34.78106689453125,28,27,35,123,74,41,100,35,2
1136,34.795700788497925,31,30,39,128,91,49,107,39,2
1137,34.817615032196045,32,30,43,115,91,53,96,40,2
1138,34.840171337127686,34,32,45,131,93,56,92,39,2
1139,34.85541749000549,32,30,44,130,94,55,94,38,2
1140,34.877721548080444,30,29,42,144,105,58,98,38,2
1141,34.90031313896179,29,23,36,128,96,51,93,34,2
1142,34.91513013839722,30,25,38,124,93,47,99,32,2
1143,34.937668800354004,29,27,39,106,84,46,100,29,2
1144,34.96027970314026,34,30,44,120,94,44,99,36,2
1145,34.97522950172424,36,35,48,100,83,42,98,37,2
1146,34.99761366844177,34,37,50,111,81,43,103,35,2
1147,35.02115035057068,32,38,46,115,93,44,91,38,2
1148,35.042725801467896,30,35,44,132,94,43,89,37,2
1149,35.05757141113281,28,33,42,127,85,43,89,31,2
1150,35.080525398254395,29,30,40,127,85,49,96,29,2
1151,35.09449625015259,30,29,38,116,83,50,86,29,2
1152,35.11764121055603,30,24,36,143,66,45,85,26,2
1153,35.140289068222046,31,24,34,133,68,46,97,28,2
1154,35.15441870689392,30,26,35,123,67,47,121,29,2
1155,35.17748689651489,26,27,32,121,74,39,113,33,2
1156,35.20042395591736,24,26,33,143,71,35,103,32,2
1157,35.215975761413574,25,27,37,163,70,35,116,36,2
1158,35.23768496513367,26,36,44,178,81,38,128,37,2
1159,35.25978660583496,26,36,42,174,79,37,106,36,2
1160,35.27463483810425,28,34,40,190,70,36,104,31,2
1161,35.297752141952515,31,38,43,194,82,40,106,34,2
1162,35.32026433944702,33,41,40,161,87,46,103,34,2
1163,35.33412408828735,39,35,33,143,78,42,96,38,2
1164,35.35781502723694,38,34,34,160,81,43,96,39,2
1165,35.380104064941406,38,34,37,149,81,46,103,42,2
1166,35.39445090293884,39,33,32,122,69,50,125,46,2
1167,35.417731523513794,37,29,37,111,57,43,114,44,2
1168,35.44040822982788,29,28,39,145,57,47,98,38,2
1169,35.45453381538391,32,28,39,128,55,46,96,38,2
1170,35.477619886398315,31,29,39,126,57,47,99,36,2
1171,35.500434160232544,31,26,41,129,58,44,80,32,2
1172,35.51465058326721,29,30,38,157,68,46,94,32,2
1173,35.5377037525177,30,31,36,145,62,41,97,33,2
1174,35.56103301048279,28,30,35,151,76,48,121,34,2
1175,35.574382066726685,28,30,35,146,78,45,117,35,2
1176,35.59851861000061,27,29,31,154,81,41,112,35,2
1177,35.62017750740051,29,27,29,133,78,50,116,39,2
1178,35.6424822807312,29,24,27,115,81,50,117,37,2
1179,35.657663106918335,31,28,32,114,73,46,95,36,2
1180,35.68021321296692,33,27,30,145,68,45,97,35,2
1181,35.70262098312378,32,28,31,137,61,44,104,33,2
1182,35.71771812438965,30,27,29,130,54,35,108,30,2
1183,35.74009704589844,32,28,32,124,48,37,109,33,2
1184,35.76262712478638,31,28,30,127,61,39,104,33,2
1185,35.77771520614624,33,27,30,109,63,43,110,39,2
1186,35.80040884017944,34,26,32,107,63,52,137,43,2
1187,35.82258415222168,35,26,35,116,76,51,124,40,2
1188,35.8377046585083,34,25,33,132,78,51,122,38,2
1189,35.86015176773071,31,23,32,128,64,48,128,37,2
1190,35.88271689414978,25,22,32,115,64,49,133,36,2
1191,35.89770460128784,28,28,34,113,67,42,110,34,2
1192,35.92013216018677,29,30,35,140,70,42,110,35,2
1193,35.94269418716431,28,31,40,154,76,43,124,37,2
1194,35.957637310028076,31,31,41,146,78,44,119,41,2
1195,35.98005509376526,35,33,39,152,77,44,111,43,2
1196,36.002257347106934,31,27,36,164,80,42,101,42,2
1197,36.016533613204956,31,26,38,136,70,43,105,42,2
1198,36.040122509002686,32,26,33,106,74,45,95,44,2
1199,36.06324505805969,30,26,34,115,75,46,99,42,2
1200,36.07775902748108,25,26,41,122,81,47,110,35,2
1201,36.10009503364563,26,27,43,122,78,48,121,37,2
1202,36.12284016609192,30,30,41,122,75,48,116,42,2
1203,36.144773721694946,30,31,41,153,79,45,107,40,2
1204,36.16185522079468,32,30,41,152,77,43,103,39,2
1205,36.182066440582275,32,28,38,155,76,41,95,39,2
1206,36.204384088516235,31,28,36,148,79,40,85,39,2
1207,36.22163367271423,31,26,38,153,85,38,87,35,2
1208,36.241947412490845,33,27,40,142,83,38,91,35,2
1209,36.26643419265747,34,30,42,141,96,50,120,39,2
1210,36.28186011314392,39,29,41,137,98,47,123,42,2
1211,36.30189847946167,41,31,42,131,94,47,116,43,2
1212,36.32452988624573,36,28,38,124,93,48,113,39,2
1213,36.341362714767456,41,30,35,98,91,53,154,50,2
1214,36.36192464828491,41,29,38,105,80,44,143,46,2
1215,36.38453960418701,39,30,35,85,72,44,129,43,2
1216,36.40114760398865,37,29,34,95,73,43,129,42,2
1217,36.42176818847656,38,29,35,106,72,48,134,46,2
1218,36.44426107406616,31,26,36,135,64,54,149,43,2
1219,36.461747884750366,27,25,30,128,58,56,144,42,2
1220,36.482197999954224,25,27,33,133,62,57,144,41,2
1221,36.50497579574585,28,29,33,147,72,60,158,45,2
1222,36.52135181427002,27,29,33,145,75,56,161,42,2
1223,36.54277682304382,29,30,38,149,80,44,121,36,2
1224,36.565072774887085,31,31,38,152,81,42,122,38,2
1225,36.58154296875,31,29,36,158,80,38,124,40,2
1226,36.60223698616028,30,26,33,141,69,37,126,35,2
1227,36.6246120929718,31,27,33,140,59,43,135,35,2
1228,36.641300439834595,30,30,34,102,57,53,125,42,2
1229,36.66254997253418,31,30,37,100,61,53,120,40,2
1230,36.68453073501587,32,30,39,89,62,56,127,42,2
1231,36.701488971710205,31,33,41,101,68,56,119,42,2
1232,36.721848011016846,35,35,43,97,71,52,105,41,2
1233,36.74594569206238,36,31,36,105,68,40,107,35,2
1234,36.76152849197388,33,29,33,112,70,39,109,35,2
1235,36.78232431411743,34,31,34,114,67,39,113,36,2
1236,36.80441117286682,35,29,38,147,68,36,103,42,2
1237,36.822503328323364,31,28,36,152,74,40,101,43,2
1238,36.84201169013977,28,25,35,153,73,39,102,42,2
1239,36.86438870429993,27,29,36,168,75,44,108,43,2
1240,36.88126277923584,23,31,38,166,79,43,101,42,2
1241,36.9024121761322,25,30,33,131,81,42,117,34,2
1242,36.92434883117676,28,30,32,123,75,38,113,32,2
1243,36.94119644165039,29,31,38,130,88,40,104,33,2
1244,36.962427854537964,35,31,39,103,84,48,120,39,2
1245,36.984466314315796,41,28,35,97,82,47,122,37,2
1246,37.001272201538086,39,32,37,131,82,49,108,38,2
1247,37.02199697494507,38,32,36,135,82,49,104,37,2
1248,37.04438662528992,39,33,32,124,66,48,112,40,2
1249,37.062166690826416,36,35,32,119,65,39,93,36,2
1250,37.08197546005249,33,36,38,133,70,40,80,37,2
1251,37.10468411445618,33,32,37,104,64,36,72,38,2
1252,37.121421813964844,31,31,41,100,69,37,84,41,2
1253,37.14268517494202,29,30,41,100,68,42,107,42,2
1254,37.16508722305298,33,28,41,109,67,39,102,42,2
1255,37.18271088600159,35,23,37,93,63,36,102,42,2
1256,37.2018940448761,36,25,36,79,64,39,101,43,2
1257,37.22402787208557,36,26,33,87,61,40,115,41,2
1258,37.241472005844116,37,23,34,100,67,35,87,36,2
1259,37.262178897857666,32,20,33,107,70,34,85,34,2
1260,37.284133434295654,28,22,38,122,87,41,86,37,2
1261,37.30153441429138,28,24,41,130,84,53,142,36,2
1262,37.321871519088745,29,22,40,121,80,56,138,36,2
1263,37.344857692718506,31,26,41,115,78,57,138,41,2
1264,37.36212944984436,31,30,43,111,93,59,138,42,2
1265,37.382373094558716,32,33,38,111,78,59,163,40,2
1266,37.404799699783325,35,32,37,111,77,53,136,42,2
1267,37.421215295791626,35,33,38,133,84,52,125,42,2
1268,37.441972732543945,31,33,35,128,82,52,124,40,2
1269,37.46406316757202,33,30,33,128,66,49,126,39,2
1270,37.4819118976593,31,28,33,131,73,52,130,42,2
1271,37.50261974334717,28,27,33,139,75,46,121,39,2
1272,37.524102449417114,27,30,35,125,73,48,122,39,2
1273,37.54648041725159,28,29,34,129,73,48,123,34,2
1274,37.56245493888855,26,29,36,141,77,53,137,35,2
1275,37.58473753929138,25,27,36,130,70,54,120,31,2
1276,37.6069176197052,25,28,39,150,78,54,114,34,2
1277,37.621455669403076,28,26,36,156,84,56,114,36,2
1278,37.64451622962952,28,25,36,165,95,56,113,37,2
1279,37.66705346107483,30,25,33,147,86,59,145,36,2
1280,37.68196964263916,35,30,43,155,101,57,135,41,2
1281,37.70457649230957,39,29,39,132,104,57,135,41,2
1282,37.72684168815613,36,29,42,136,104,53,136,38,2
1283,37.741923093795776,38,33,47,119,91,54,137,38,2
1284,37.765066385269165,36,33,46,141,107,46,100,37,2
1285,37.787153482437134,35,29,38,133,100,42,108,32,2
1286,37.80212736129761,31,32,41,122,90,44,107,35,2
1287,37.82448053359985,32,31,39,109,85,42,104,34,2
1288,37.846975326538086,33,29,35,118,95,41,100,35,2
1289,37.86198115348816,35,29,35,98,84,44,93,35,2
1290,37.88475680351257,32,30,34,98,76,42,81,37,2
1291,37.90735864639282,31,27,37,122,92,44,78,33,2
1292,37.92210650444031,31,29,38,129,93,47,80,35,2
1293,37.94393754005432,28,28,41,129,83,47,84,35,2
1294,37.96893334388733,25,28,46,167,92,50,103,38,2
1295,37.981905937194824,31,28,46,172,92,54,99,38,2
1296,38.011496782302856,34,26,40,160,75,49,98,36,2
1297,38.02705955505371,33,29,47,159,82,54,99,35,2
1298,38.04193067550659,36,30,46,155,84,55,114,42,2
1299,38.064496994018555,37,30,41,117,70,51,90,41,2
1300,38.08691382408142,32,28,41,119,80,48,87,36,2
1301,38.10197591781616,33,34,43,114,82,50,86,41,2
1302,38.12442326545715,36,31,33,116,72,43,86,41,2
1303,38.147167444229126,38,30,32,115,69,52,111,35,2
1304,38.16229200363159,43,31,32,122,65,53,118,36,2
1305,38.184499979019165,46,33,37,121,54,53,120,39,2
1306,38.207064390182495,44,29,38,139,54,52,120,36,2
1307,38.22192192077637,42,27,38,131,58,52,119,36,2
1308,38.244444847106934,39,28,42,149,59,44,97,36,2
1309,38.267106771469116,33,27,45,150,65,44,84,35,2
1310,38.28196716308594,30,24,41,156,68,41,82,36,2
1311,38.30445599555969,32,23,40,145,65,54,132,39,2
1312,38.3272979259491,33,25,41,152,70,60,138,38,2
1313,38.34241533279419,31,23,39,151,74,56,123,41,2
1314,38.36459469795227,31,23,36,137,68,53,121,41,2
1315,38.38705062866211,36,25,35,117,65,54,134,39,2
1316,38.40234613418579,36,24,35,148,73,47,104,37,2
1317,38.42447233200073,38,26,38,147,71,40,96,39,2
1318,38.44703125953674,38,29,38,136,68,42,107,36,2
1319,38.46150875091553,43,28,39,138,73,44,109,42,2
1320,38.49211120605469,40,27,40,154,83,45,104,40,2
1321,38.50704526901245,39,31,47,127,79,42,92,39,2
1322,38.52955961227417,35,29,44,120,74,42,93,38,2
1323,38.54486608505249,36,30,41,129,73,43,96,37,2
1324,38.567193031311035,32,30,41,129,70,41,104,31,2
1325,38.59099102020264,30,29,37,109,56,37,96,32,2
1326,38.60460805892944,28,29,37,125,61,34,89,33,2
1327,38.6269748210907,28,28,39,145,74,35,102,34,2
1328,38.64964413642883,38,29,43,153,86,39,121,44,2
1329,38.66471195220947,39,31,44,157,87,43,119,43,2
1330,38.68705344200134,39,31,50,195,93,46,118,44,2
1331,38.71025085449219,40,29,43,183,87,45,121,45,2
1332,38.72455334663391,40,31,45,171,85,47,115,47,2
1333,38.74837851524353,29,27,42,161,74,42,80,39,2
1334,38.76998567581177,29,26,47,183,97,42,102,40,2
1335,38.78453993797302,31,28,45,148,97,43,102,39,2
1336,38.80721998214722,33,30,48,165,98,47,108,40,2
1337,38.82962346076965,35,29,45,160,91,44,104,36,2
1338,38.844539403915405,35,31,43,152,89,44,105,34,2
1339,38.86708378791809,32,32,38,119,63,44,96,30,2
1340,38.88965606689453,31,31,35,136,53,40,99,36,2
1341,38.90466594696045,30,31,34,118,50,43,104,39,2
1342,38.927064418792725,30,31,34,127,54,47,103,41,2
1343,38.94959855079651,32,29,37,127,61,50,118,41,2
1344,38.9645516872406,34,28,36,129,63,47,103,42,2
1345,38.98700976371765,35,27,39,107,76,49,99,39,2
1346,39.00961947441101,34,25,39,116,74,46,90,34,2
1347,39.024680852890015,33,23,39,118,72,43,93,32,2
1348,39.047112226486206,30,24,40,117,77,40,87,33,2
1349,39.069806814193726,29,28,38,123,77,40,91,34,2
1350,39.08414268493652,28,26,33,116,64,38,93,33,2
1351,39.107041358947754,29,28,33,119,63,34,92,32,2
1352,39.12946128845215,30,27,31,108,72,34,104,31,2
1353,39.144686698913574,31,28,30,125,61,33,93,30,2
1354,39.16708469390869,31,23,28,115,57,31,87,30,2
1355,39.189746141433716,30,25,30,132,72,32,90,29,2
1356,39.204009771347046,28,23,28,119,78,30,84,28,2
1357,39.227391958236694,28,24,30,121,70,32,89,35,2
1358,39.25023865699768,28,24,28,98,70,34,96,35,2
1359,39.2645947933197,27,25,30,115,74,36,103,35,2
1360,39.28701829910278,27,24,30,102,61,37,103,39,2
1361,39.31007432937622,31,23,33,115,57,37,109,40,2
1362,39.324254274368286,33,31,36,114,62,44,119,49,2
1363,39.35413956642151,33,31,36,128,62,41,115,48,2
1364,39.37008237838745,33,30,37,131,63,41,123,51,2
1365,39.384634256362915,32,31,42,142,77,42,118,48,2
1366,39.40703845024109,29,36,46,174,97,48,127,52,2
1367,39.42977786064148,27,32,44,174,96,42,110,44,2
1368,39.45235896110535,30,32,42,168,96,44,108,49,2
1369,39.468390703201294,32,35,43,156,95,43,90,47,2
1370,39.489551305770874,33,35,46,190,89,42,91,46,2
1371,39.512067556381226,36,30,41,170,75,46,119,51,2
1372,39.52737212181091,41,31,44,176,82,52,122,51,2
1373,39.549560546875,42,33,46,190,88,53,122,50,2
1374,39.572343587875366,40,31,48,202,92,51,122,49,2
1375,39.587076902389526,40,31,42,164,89,53,126,50,2
1376,39.60899567604065,41,34,44,155,85,52,98,43,2
1377,39.63276124000549,36,31,39,150,77,44,89,38,2
1378,39.64702105522156,33,31,44,137,81,46,84,36,2
1379,39.67065191268921,34,34,45,120,75,48,89,38,2
1380,39.692166328430176,35,34,47,132,81,45,111,41,2
1381,39.70787835121155,33,32,45,129,102,38,96,38,2
1382,39.7294487953186,31,34,48,130,105,38,89,38,2
1383,39.75246548652649,29,31,42,121,95,32,91,36,2
1384,39.76719808578491,29,25,36,143,96,32,92,33,2
1385,39.789637327194214,39,24,32,135,95,40,86,35,2
1386,39.81205081939697,41,23,31,129,77,43,92,37,2
1387,39.827107429504395,41,25,38,126,74,44,93,36,2
1388,39.84977173805237,43,29,41,144,77,45,94,39,2
1389,39.87205696105957,48,31,41,126,76,50,125,45,2
1390,39.88707447052002,43,30,40,124,72,46,118,49,2
1391,39.90954613685608,40,31,43,128,65,40,111,47,2
1392,39.93260836601257,41,30,36,159,62,45,113,48,2
1393,39.946990728378296,40,25,33,146,61,54,149,47,2
1394,39.969587087631226,34,23,32,141,61,51,123,39,2
1395,39.99307632446289,29,26,35,143,60,50,113,31,2
1396,40.00695276260376,29,26,31,139,56,53,119,38,2
1397,40.02991700172424,30,24,30,103,64,51,118,38,2
1398,40.05218720436096,38,30,37,133,87,51,84,48,2
1399,40.068300008773804,36,31,39,149,86,54,89,49,2
1400,40.08957505226135,35,30,38,163,85,53,88,46,2
1401,40.112030267715454,36,34,41,169,89,54,82,45,2
1402,40.12707710266113,36,34,45,174,91,59,106,44,2
1403,40.14974403381348,29,29,41,184,69,50,98,32,2
1404,40.17206048965454,32,31,42,175,68,44,89,33,2
1405,40.1871600151062,33,32,45,162,75,48,93,35,2
1406,40.20973587036133,33,26,42,151,72,46,99,34,2
1407,40.23225212097168,33,26,39,171,79,46,86,33,2
1408,40.24703359603882,33,26,40,150,81,47,82,36,2
1409,40.26964735984802,29,26,42,143,87,54,81,34,2
1410,40.29219055175781,32,28,39,145,81,56,92,37,2
1411,40.30756425857544,35,28,40,152,88,63,119,36,2
1412,40.32946228981018,34,27,37,137,84,58,111,36,2
1413,40.352067947387695,35,33,40,132,87,60,108,34,2
1414,40.36706209182739,37,31,35,142,88,54,109,36,2
1415,40.38972616195679,35,30,39,201,89,54,116,34,2
1416,40.413289308547974,31,32,40,201,85,47,90,34,2
1417,40.43505883216858,32,33,43,196,80,51,90,34,2
1418,40.44986939430237,34,32,41,188,86,51,99,41,2
1419,40.47258496284485,35,33,42,232,87,55,103,39,2
1420,40.49456286430359,35,31,41,192,87,56,96,44,2
1421,40.50954270362854,37,30,39,190,84,53,92,45,2
1422,40.532126665115356,38,28,37,182,80,50,89,51,2
1423,40.55478024482727,36,24,33,189,64,48,85,47,2
1424,40.5698504447937,34,24,37,137,57,46,92,46,2
1425,40.59170722961426,34,23,32,116,57,53,120,44,2
1426,40.614134788513184,34,24,33,132,56,52,120,43,2
1427,40.63228511810303,34,24,36,142,68,53,120,38,2
1428,40.65221452713013,32,24,40,149,84,51,127,42,2
1429,40.674689531326294,34,26,36,137,79,52,129,43,2
1430,40.68959593772888,32,25,37,143,79,45,114,43,2
1431,40.712470293045044,35,26,35,135,86,46,119,44,2
1432,40.73417568206787,33,28,33,132,74,44,119,42,2
1433,40.74926233291626,34,27,31,117,56,45,118,40,2
1434,40.771658420562744,33,28,33,149,66,41,110,42,2
1435,40.79483675956726,35,31,36,152,68,37,100,39,2
1436,40.809709310531616,33,31,38,157,64,35,89,41,2
1437,40.832377195358276,32,30,39,165,64,37,89,42,2
1438,40.85475730895996,30,29,41,166,65,35,81,40,2
1439,40.86976861953735,33,28,40,145,59,39,103,41,2
1440,40.89251732826233,33,28,36,132,60,45,94,42,2
1441,40.91516327857971,33,26,37,137,57,45,95,42,2
1442,40.929869651794434,33,26,37,118,66,45,95,39,2
1443,40.95216941833496,32,26,34,126,78,46,107,38,2
1444,40.97486448287964,27,25,32,140,75,48,109,34,2
1445,40.98959016799927,26,25,37,152,78,45,110,32,2
1446,41.0122332572937,27,26,34,139,93,49,108,28,2
1447,41.03470468521118,28,28,31,138,88,49,120,31,2
1448,41.0501446723938,30,29,34,142,83,51,119,35,2
1449,41.07218050956726,33,30,36,127,89,48,97,36,2
1450,41.09467267990112,31,28,31,119,83,43,93,34,2
1451,41.110501766204834,29,28,34,130,71,41,94,33,2
1452,41.132084608078,28,26,37,142,78,40,95,32,2
1453,41.15469813346863,29,33,39,132,84,37,107,36,2
1454,41.16960120201111,31,33,38,134,82,34,105,37,2
1455,41.193230628967285,31,35,38,136,89,37,105,40,2
1456,41.21518421173096,31,34,37,134,86,36,104,41,2
1457,41.229623317718506,33,37,34,123,78,39,126,48,2
1458,41.25222301483154,39,34,33,117,65,39,114,51,2
1459,41.274988889694214,36,32,33,126,64,44,116,51,2
1460,41.28954315185547,36,30,37,118,52,41,116,48,2
1461,41.31214666366577,38,32,37,99,53,44,135,53,2
1462,41.33468055725098,36,29,40,115,64,55,129,49,2
1463,41.35790157318115,28,25,38,135,66,53,120,40,2
1464,41.3720977306366,29,28,45,123,66,51,118,40,2
1465,41.394548416137695,27,29,42,120,65,54,121,41,2
1466,41.418896198272705,27,30,42,163,78,54,109,36,2
1467,41.43250918388367,29,33,43,155,73,47,89,37,2
1468,41.462902307510376,32,34,44,150,71,55,98,38,2
1469,41.47804021835327,33,36,35,156,75,57,103,42,2
1470,41.49225831031799,36,37,37,171,82,60,110,42,2
1471,41.51464104652405,38,36,36,129,76,58,111,44,2
1472,41.538129568099976,37,33,33,129,76,54,107,40,2
1473,41.552104234695435,36,32,31,117,81,48,108,40,2
1474,41.574575662612915,34,28,32,107,82,54,113,35,2
1475,41.59731078147888,36,29,32,82,78,48,108,39,2
1476,41.61252164840698,36,31,30,90,79,46,102,43,2
1477,41.63486862182617,35,29,31,93,77,45,113,45,2
1478,41.65807056427002,32,31,30,90,69,46,114,43,2
1479,41.67188549041748,33,32,34,98,64,43,116,45,2
1480,41.695056438446045,30,30,31,115,65,41,115,42,2
1481,41.717944383621216,23,25,32,136,59,41,115,33,2
1482,41.732136249542236,21,27,32,140,54,44,106,30,2
1483,41.7548189163208,31,30,41,147,67,42,102,39,2
1484,41.77783203125,34,31,38,161,66,35,97,40,2
1485,41.79224991798401,35,32,45,169,72,40,91,39,2
1486,41.814631938934326,35,33,45,160,76,44,87,40,2
1487,41.83797788619995,36,33,48,153,83,55,113,41,2
1488,41.85233950614929,32,35,44,166,88,60,119,44,2
1489,41.874701261520386,29,34,42,165,88,61,115,45,2
1490,41.897971868515015,33,33,37,144,80,58,114,46,2
1491,41.91212844848633,34,33,38,132,76,57,113,46,2
1492,41.93491005897522,33,35,36,141,75,46,94,47,2
1493,41.957852363586426,32,29,35,141,77,42,85,46,2
1494,41.98035502433777,32,28,35,127,73,42,82,47,2
1495,41.995946407318115,30,31,37,129,75,44,82,47,2
1496,42.01807522773743,31,32,36,145,84,44,81,46,2
1497,42.03270626068115,32,31,36,151,95,48,81,47,2
1498,42.05465006828308,30,30,33,125,85,54,105,39,2
1499,42.078527212142944,29,29,33,134,85,54,107,32,2
1500,42.09228205680847,27,28,39,146,86,56,110,33,2
1501,42.1150906085968,26,26,39,129,78,56,111,34,2
1502,42.13782739639282,26,25,38,114,69,66,138,38,2
1503,42.152360677719116,27,28,40,124,74,62,119,39,2
1504,42.17460036277771,27,28,41,103,76,61,116,41,2
1505,42.197518825531006,27,27,33,80,75,58,113,40,2
1506,42.21182346343994,28,27,33,94,73,57,115,44,2
1507,42.23461151123047,31,27,34,116,67,39,78,43,2
1508,42.257821798324585,28,25,36,129,62,34,74,42,2
1509,42.2721803188324,29,24,35,137,74,40,77,40,2
1510,42.294639587402344,28,24,40,172,74,40,79,39,2
1511,42.31881070137024,30,24,38,173,81,51,130,37,2
1512,42.34067177772522,29,25,41,181,92,55,132,34,2
1513,42.35469651222229,32,24,39,170,88,54,131,39,2
1514,42.377859592437744,33,27,42,177,93,55,131,40,2
1515,42.40032935142517,32,27,39,160,98,57,136,38,2
1516,42.41486954689026,32,29,44,164,96,50,109,42,2
1517,42.43817114830017,29,27,40,163,84,43,94,41,2
1518,42.46055579185486,28,32,43,164,95,47,95,42,2
1519,42.474780559539795,26,29,41,156,80,42,94,40,2
1520,42.49793744087219,27,29,39,143,75,38,89,40,2
1521,42.520050048828125,24,26,33,151,81,42,105,38,2
1522,42.53482627868652,26,27,37,123,84,44,110,37,2
1523,42.55799889564514,25,24,35,124,73,41,109,29,2
1524,42.58060264587402,26,25,34,145,72,43,110,32,2
1525,42.59463953971863,27,26,37,161,75,46,124,36,2
1526,42.61785936355591,28,27,37,145,77,42,96,34,2
1527,42.64056611061096,27,27,35,153,77,41,88,34,2
1528,42.65473747253418,26,27,32,170,76,40,85,36,2
1529,42.67749524116516,29,34,36,155,87,47,112,42,2
1530,42.700833559036255,30,34,31,133,89,49,112,42,2
1531,42.714988470077515,29,34,32,147,80,54,114,41,2
1532,42.73719811439514,35,34,41,194,100,64,119,48,2
1533,42.76039433479309,37,34,44,183,113,65,120,49,2
1534,42.77482080459595,36,27,41,176,107,59,107,44,2
1535,42.79724645614624,36,29,47,202,113,66,118,46,2
1536,42.82027578353882,37,29,48,195,113,60,112,48,2
1537,42.8345742225647,33,28,40,155,109,48,106,43,2
1538,42.85735034942627,34,30,38,147,103,52,121,43,2
1539,42.88049864768982,36,29,39,157,101,59,137,45,2
1540,42.89482665061951,35,28,35,129,97,47,116,39,2
1541,42.91763353347778,36,28,34,117,95,53,117,37,2
1542,42.9404776096344,34,27,32,113,73,54,116,33,2
1543,42.954715728759766,32,24,36,150,69,52,101,33,2
1544,42.97753572463989,29,24,35,137,72,53,81,31,2
1545,43.00033259391785,31,22,34,141,66,58,101,31,2
1546,43.01468253135681,32,21,34,148,68,56,102,29,2
1547,43.037266969680786,36,22,35,161,72,57,104,34,2
1548,43.060445070266724,36,30,43,140,82,59,105,39,2
1549,43.07488512992859,36,31,47,148,78,54,105,40,2
1550,43.09713172912598,36,32,47,148,81,49,102,45,2
1551,43.120474338531494,36,35,48,156,82,49,102,51,2
1552,43.134767293930054,34,36,48,143,88,50,117,48,2
1553,43.157110929489136,32,29,38,133,79,46,116,42,2
1554,43.18007731437683,32,31,37,148,84,47,119,43,2
1555,43.19467234611511,42,39,43,161,89,52,119,50,2
1556,43.21745157241821,39,36,43,154,91,50,117,43,2
1557,43.24032020568848,38,35,43,169,107,46,103,45,2
1558,43.26329183578491,40,41,44,180,114,51,115,48,2
1559,43.277313232421875,40,45,47,165,116,58,113,47,2
1560,43.301135778427124,39,38,43,168,108,53,100,38,2
1561,43.32251167297363,40,38,42,169,105,53,101,39,2
1562,43.33693194389343,42,40,46,181,85,55,102,37,2
1563,43.360591173172,49,36,45,172,67,52,116,45,2
1564,43.384135007858276,53,31,38,176,53,39,109,45,2
1565,43.3971962928772,46,34,43,174,58,42,104,45,2
1566,43.42032861709595,47,35,40,169,61,41,106,47,2
1567,43.44301986694336,48,33,36,130,57,44,139,47,2
1568,43.45778179168701,40,33,34,125,65,51,129,41,2
1569,43.480518102645874,35,35,39,156,70,53,121,46,2
1570,43.50375580787659,33,33,35,149,78,50,121,43,2
1571,43.51744532585144,31,31,35,147,77,50,126,44,2
1572,43.54072570800781,28,32,38,146,74,44,94,43,2
1573,43.56317114830017,27,32,44,199,83,39,79,41,2
1574,43.57737135887146,22,26,41,179,89,39,79,33,2
1575,43.60089135169983,26,27,39,169,79,42,101,36,2
1576,43.62332725524902,30,27,43,193,84,47,127,38,2
1577,43.6377592086792,35,31,52,230,101,59,130,45,2
1578,43.66036558151245,37,34,51,193,91,57,134,48,2
1579,43.68319797515869,41,35,52,190,85,56,138,49,2
1580,43.697734355926514,43,35,52,197,89,53,157,49,2
1581,43.72034502029419,44,38,57,214,94,53,137,47,2
1582,43.74245071411133,41,34,48,183,76,39,126,40,2
1583,43.75767159461975,39,32,53,186,76,38,127,36,2
1584,43.7803475856781,39,30,55,191,73,39,142,36,2
1585,43.80287170410156,36,30,56,195,71,38,105,33,2
1586,43.817705154418945,30,26,49,161,59,35,97,32,2
1587,43.84079718589783,31,28,49,155,65,39,104,33,2
1588,43.86295795440674,35,26,40,152,66,45,120,37,2
1589,43.87720990180969,31,27,36,138,63,44,96,34,2
1590,43.900442361831665,34,29,39,137,65,47,94,41,2
1591,43.92314100265503,34,31,38,125,66,47,98,39,2
1592,43.9377224445343,47,32,36,123,57,46,125,52,2
1593,43.96005368232727,49,41,51,156,103,57,115,60,2
1594,43.98244524002075,52,40,53,193,115,58,117,60,2
1595,43.996779441833496,60,41,49,184,116,71,181,77,2
1596,44.02065062522888,63,43,52,190,117,74,215,106,2
1597,44.04341220855713,53,41,53,196,120,74,205,106,2
1598,44.057286500930786,48,34,42,210,102,63,201,104,2
1599,44.080631494522095,47,37,41,180,92,61,212,105,2
1600,44.10294723510742,39,43,40,183,88,50,201,133,2
1601,44.11781120300293,36,41,36,183,83,42,170,119,2
1602,44.139914751052856,41,46,45,200,92,51,176,117,2
1603,44.162912130355835,49,51,47,162,77,58,260,117,2
1604,44.18558311462402,57,56,51,166,83,75,338,133,2
1605,44.200653314590454,57,53,56,159,84,79,337,117,2
1606,44.22295880317688,58,52,55,156,92,99,362,123,2
1607,44.24562621116638,62,52,51,133,86,99,393,132,2
1608,44.260395765304565,59,49,46,118,82,120,407,132,2
1609,44.2829704284668,51,41,41,115,87,115,358,124,2
1610,44.30533790588379,63,43,43,150,97,120,374,121,2
1611,44.320374727249146,65,44,47,177,118,140,403,114,2
1612,44.343045473098755,60,39,43,177,123,148,412,104,2
1613,44.365856409072876,62,39,46,184,129,144,385,103,2
1614,44.38052725791931,65,41,48,189,134,146,376,101,2
1615,44.40315580368042,50,36,41,166,129,140,346,76,2
1616,44.43299627304077,56,35,39,157,106,113,319,70,2
1617,44.44037675857544,58,35,42,156,104,112,308,98,2
1618,45.42353558540344,39,35,36,313,91,40,36,46,1
1619,45.44544768333435,40,36,40,292,110,40,36,47,1
1620,45.46825909614563,30,34,40,350,111,38,35,38,1
1621,45.48304486274719,39,35,41,343,104,43,46,47,1
1622,45.50585961341858,43,39,48,341,103,48,49,54,1
1623,45.52851867675781,48,41,51,322,113,48,55,58,1
1624,45.54234313964844,48,47,53,329,96,54,59,59,1
1625,45.565402030944824,51,49,51,241,102,59,61,63,1
1626,45.58825993537903,46,48,53,250,99,53,55,56,1
1627,45.6025185585022,43,48,49,221,95,53,62,59,1
1628,45.62563872337341,36,45,52,266,100,51,58,55,1
1629,45.647985219955444,35,37,50,259,109,49,58,52,1
1630,45.662415981292725,34,36,49,272,104,43,55,50,1
1631,45.68557095527649,37,36,49,294,108,50,60,50,1
1632,45.708054065704346,44,34,48,290,105,47,49,45,1
1633,45.72238302230835,44,34,36,242,86,47,48,42,1
1634,45.745864391326904,45,36,39,289,78,45,46,45,1
1635,45.76819038391113,49,35,44,284,79,47,50,60,1
1636,45.78195095062256,46,37,40,285,74,42,44,61,1
1637,45.80525588989258,41,37,40,297,78,44,48,62,1
1638,45.8279812335968,42,38,42,306,95,54,50,66,1
1639,45.84226369857788,43,38,36,263,94,55,52,66,1
1640,45.86561679840088,37,40,36,293,99,54,48,53,1
1641,45.8877489566803,37,43,42,324,112,58,49,53,1
1642,45.90224575996399,36,41,43,336,113,56,47,49,1
1643,45.925519943237305,32,38,41,366,111,46,44,43,1
1644,45.94796276092529,32,36,42,359,107,42,41,38,1
1645,45.96234178543091,35,40,47,349,103,52,52,42,1
1646,45.98590660095215,37,37,46,316,97,52,52,47,1
1647,46.008002281188965,35,37,46,317,96,50,52,46,1
1648,46.02240324020386,38,39,49,283,93,51,50,47,1
1649,46.04597330093384,41,44,52,288,107,57,52,51,1
1650,46.06818866729736,38,42,46,271,106,51,45,48,1
1651,46.09047031402588,41,41,41,291,100,47,43,45,1
1652,46.10560131072998,42,40,39,269,101,47,40,43,1
1653,46.12803864479065,40,41,39,283,92,44,43,42,1
1654,46.15045499801636,37,37,34,275,80,38,42,37,1
1655,46.165478229522705,38,34,33,277,89,37,42,38,1
1656,46.18850326538086,31,36,39,242,98,40,43,34,1
1657,46.21062445640564,31,37,42,241,94,40,43,37,1
1658,46.225769996643066,30,36,38,253,96,40,40,37,1
1659,46.248106718063354,33,37,42,275,92,41,42,43,1
1660,46.27086353302002,32,44,41,288,78,40,43,43,1
1661,46.2857723236084,34,41,36,316,75,35,41,40,1
1662,46.3079948425293,34,44,32,322,81,38,44,40,1
1663,46.33047366142273,37,44,34,360,98,40,44,42,1
1664,46.34550452232361,38,48,35,352,107,39,43,40,1
1665,46.369319677352905,36,39,36,377,110,35,36,34,1
1666,46.39000749588013,33,38,38,383,107,39,35,38,1
1667,46.405771255493164,33,34,44,386,106,43,33,39,1
1668,46.42985963821411,32,33,46,351,90,49,37,40,1
1669,46.449889183044434,27,31,44,351,87,49,38,38,1
1670,46.466736793518066,30,39,43,311,84,53,46,46,1
1671,46.490330934524536,31,42,41,323,86,53,50,45,1
1672,46.51008224487305,30,41,36,322,84,49,48,43,1
1673,46.5265097618103,27,41,32,323,87,40,45,40,1
1674,46.54910397529602,29,37,41,370,107,41,41,40,1
1675,46.56933379173279,29,32,46,375,105,41,35,31,1
1676,46.587281465530396,32,30,46,355,101,39,30,31,1
1677,46.60944890975952,33,33,51,384,107,40,31,33,1
1678,46.629409074783325,34,32,53,354,109,42,32,33,1
1679,46.647947788238525,34,33,45,311,101,40,33,30,1
1680,46.66911578178406,36,38,45,302,110,35,32,32,1
1681,46.690194845199585,34,38,44,267,108,34,34,29,1
1682,46.70672845840454,34,49,39,216,123,38,37,30,1
1683,46.734975814819336,37,57,38,216,120,45,45,35,1
1684,46.74971151351929,34,57,39,227,104,44,44,35,1
1685,46.76669645309448,30,54,41,245,103,46,44,33,1
1686,46.7891948223114,34,57,47,270,112,49,47,37,1
1687,46.80944514274597,32,48,48,305,95,48,47,37,1
1688,46.826714515686035,31,37,60,333,107,41,39,34,1
1689,46.85039758682251,32,36,61,345,112,41,39,36,1
1690,46.870018005371094,35,36,58,337,104,41,40,41,1
1691,46.89289474487305,31,29,60,369,100,39,36,39,1
1692,46.90947079658508,32,31,57,354,92,36,37,38,1
1693,46.92978811264038,33,33,50,332,88,38,38,39,1
1694,46.95253252983093,33,33,49,346,85,37,38,37,1
1695,46.96992492675781,31,34,50,343,94,42,37,33,1
1696,46.989776372909546,33,34,48,305,95,42,37,36,1
1697,47.01276731491089,33,32,49,294,96,43,37,37,1
1698,47.02953577041626,29,32,47,285,89,46,39,36,1
1699,47.04984092712402,33,34,48,304,106,50,45,41,1
1700,47.072264194488525,33,33,46,295,102,45,43,42,1
1701,47.09509587287903,32,33,40,298,103,46,42,38,1
1702,47.10986113548279,32,34,43,288,102,48,41,41,1
1703,47.13230109214783,32,35,39,302,99,43,40,39,1
1704,47.14909648895264,30,36,34,264,84,39,33,38,1
1705,47.170084953308105,26,35,35,287,82,40,34,39,1
1706,47.19229745864868,27,38,36,295,84,41,37,40,1
1707,47.209192752838135,26,39,36,311,87,36,33,38,1
1708,47.23050045967102,27,37,34,305,84,34,30,38,1
1709,47.252561807632446,26,38,38,287,77,36,31,35,1
1710,47.27034258842468,26,37,44,291,74,36,33,35,1
1711,47.289888858795166,26,38,45,259,62,33,34,34,1
1712,47.31229853630066,28,38,53,260,69,37,39,34,1
1713,47.3297483921051,28,37,57,273,85,40,39,35,1
1714,47.34990072250366,28,37,56,248,83,39,39,34,1
1715,47.372326374053955,28,37,52,254,81,36,37,30,1
1716,47.390103340148926,29,38,52,266,83,40,39,29,1
1717,47.409886598587036,28,39,45,263,73,44,38,31,1
1718,47.432684898376465,31,40,42,306,62,44,41,33,1
1719,47.449084758758545,30,40,42,305,66,44,39,32,1
1720,47.47012686729431,35,44,44,315,84,55,51,46,1
1721,47.492618799209595,35,41,43,339,107,56,50,48,1
1722,47.5097758769989,34,40,43,350,110,52,50,47,1
1723,47.52991771697998,33,42,41,315,110,59,56,54,1
1724,47.5523681640625,35,43,43,338,109,62,58,55,1
1725,47.569902181625366,31,38,49,304,96,55,49,46,1
1726,47.58983516693115,29,37,51,328,70,51,48,45,1
1727,47.61352872848511,32,36,72,328,74,50,47,48,1
1728,47.629764795303345,30,33,78,351,74,43,38,41,1
1729,47.650818824768066,31,35,83,339,78,48,42,47,1
1730,47.672314405441284,33,36,78,351,84,51,45,47,1
1731,47.689181327819824,33,35,78,319,98,51,46,47,1
1732,47.70930504798889,31,40,63,316,105,58,51,46,1
1733,47.73226451873779,31,42,57,282,107,57,52,43,1
1734,47.74925971031189,29,38,47,291,103,50,46,36,1
1735,47.77007460594177,27,39,49,295,105,44,44,38,1
1736,47.79226326942444,30,38,44,265,94,46,45,37,1
1737,47.80908513069153,29,32,36,270,83,38,39,33,1
1738,47.829771995544434,30,27,36,265,89,37,37,33,1
1739,47.85229182243347,30,31,40,250,91,40,38,33,1
1740,47.87025213241577,29,36,43,240,90,42,36,29,1
1741,47.891005754470825,31,36,47,246,92,44,33,31,1
1742,47.912537574768066,31,38,44,234,86,46,39,34,1
1743,47.929471254348755,31,41,46,237,81,43,37,35,1
1744,47.95034575462341,32,40,44,245,81,44,40,39,1
1745,47.9726128578186,34,34,48,252,85,42,39,39,1
1746,47.99453377723694,32,43,45,240,78,38,39,38,1
1747,48.00946307182312,33,46,47,316,90,32,34,36,1
1748,48.0324809551239,33,43,45,314,82,32,36,35,1
1749,48.05502367019653,36,45,45,328,86,31,34,34,1
1750,48.07013511657715,35,45,37,325,81,30,37,33,1
1751,48.09238815307617,33,37,36,345,87,31,35,33,1
1752,48.115182638168335,30,34,35,276,82,37,35,31,1
1753,48.1300368309021,31,35,46,298,94,41,37,33,1
1754,48.1523494720459,27,33,45,281,94,41,35,30,1
1755,48.174840450286865,27,32,49,277,90,46,33,31,1
1756,48.19012689590454,29,31,51,306,87,49,41,32,1
1757,48.21261930465698,30,32,49,296,82,48,41,34,1
1758,48.23488235473633,29,30,43,300,83,47,41,36,1
1759,48.25000262260437,32,33,46,298,80,52,46,37,1
1760,48.272642612457275,33,37,41,293,87,48,49,38,1
1761,48.29448390007019,32,39,41,259,101,47,45,38,1
1762,48.31002902984619,35,41,45,266,97,45,46,40,1
1763,48.33246946334839,34,44,42,263,93,44,46,39,1
1764,48.354931592941284,34,46,45,326,97,37,45,38,1
1765,48.37019419670105,32,46,44,326,94,40,47,37,1
1766,48.39237070083618,35,48,49,330,98,53,52,41,1
1767,48.4149694442749,32,45,48,323,104,51,49,40,1
1768,48.430392265319824,32,42,50,314,102,51,49,38,1
1769,48.45232009887695,32,41,44,266,101,54,49,41,1
1770,48.475022315979004,35,40,49,292,117,57,46,42,1
1771,48.489930391311646,35,38,43,280,110,48,40,37,1
1772,48.512775182724,37,40,48,352,116,52,42,38,1
1773,48.53520178794861,37,42,49,334,115,55,42,39,1
1774,48.55746388435364,37,37,51,309,113,55,38,37,1
1775,48.57251691818237,38,37,54,292,103,61,43,42,1
1776,48.5947949886322,33,36,55,293,96,56,42,39,1
1777,48.609856605529785,32,34,54,204,86,53,39,38,1
1778,48.632431507110596,35,37,53,229,88,51,46,41,1
1779,48.655131578445435,34,36,53,223,85,47,45,42,1
1780,48.677539110183716,31,38,47,220,75,36,40,39,1
1781,48.6924684047699,32,36,53,357,84,39,41,41,1
1782,48.7149817943573,32,35,48,353,86,40,40,40,1
1783,48.72995853424072,35,31,46,347,82,42,33,39,1
1784,48.75253629684448,32,32,48,353,88,45,34,36,1
1785,48.77488899230957,33,31,48,364,92,42,36,35,1
1786,48.78989100456238,36,38,44,222,84,45,43,43,1
1787,48.81259322166443,38,42,42,302,86,47,49,42,1
1788,48.834834575653076,33,43,40,301,91,45,48,42,1
1789,48.84991478919983,34,42,38,300,85,39,48,41,1
1790,48.87188124656677,33,42,39,293,83,41,48,41,1
1791,48.89610743522644,30,35,33,310,80,35,42,35,1
1792,48.910035848617554,30,33,36,238,81,32,38,38,1
1793,48.93253993988037,29,30,35,240,72,33,40,37,1
1794,48.955012798309326,29,32,37,237,70,32,38,37,1
1795,48.97812628746033,32,35,36,229,67,32,35,35,1
1796,48.99229693412781,36,36,37,211,65,33,36,36,1
1797,49.01512169837952,34,36,37,252,65,36,38,35,1
1798,49.038053035736084,35,41,47,271,76,37,40,34,1
1799,49.05238890647888,37,42,51,273,80,39,43,40,1
1800,49.074939489364624,35,39,47,257,82,36,42,40,1
1801,49.09759545326233,32,39,48,256,92,37,40,40,1
1802,49.11227750778198,33,39,48,223,86,38,42,42,1
1803,49.134844064712524,31,36,39,209,77,35,37,42,1
1804,49.15741848945618,28,34,30,212,76,34,34,38,1
1805,49.172001123428345,30,34,37,220,72,34,36,38,1
1806,49.19476580619812,34,35,38,266,63,36,40,37,1
1807,49.21747350692749,34,38,37,261,63,31,39,33,1
1808,49.23231220245361,35,39,38,239,59,31,41,33,1
1809,49.254706144332886,39,39,52,289,99,45,45,37,1
1810,49.277700424194336,43,40,57,365,122,52,47,44,1
1811,49.29268431663513,39,39,56,333,121,49,45,42,1
1812,49.314539432525635,40,38,55,357,126,53,41,42,1
1813,49.33690285682678,44,38,59,393,145,59,42,43,1
1814,49.35270690917969,41,41,47,353,121,49,38,41,1
1815,49.375229835510254,34,41,38,284,97,44,36,31,1
1816,49.39739394187927,34,42,43,310,102,45,35,35,1
1817,49.412280559539795,32,47,45,286,106,45,46,41,1
1818,49.434751749038696,33,49,41,240,77,39,50,48,1
1819,49.45761823654175,34,49,43,262,85,44,53,48,1
1820,49.47228121757507,37,53,50,285,97,46,56,51,1
1821,49.49525260925293,37,53,45,267,93,46,56,49,1
1822,49.517449140548706,36,46,45,262,84,41,48,42,1
1823,49.532471895217896,33,43,49,257,88,42,41,31,1
1824,49.55499219894409,33,42,48,271,88,37,39,31,1
1825,49.585771322250366,31,35,40,269,94,39,38,27,1
1826,49.59227466583252,34,35,43,275,98,42,42,33,1
1827,49.61522316932678,33,36,45,283,103,42,42,34,1
1828,49.63757085800171,32,36,38,289,106,43,44,34,1
1829,49.65186142921448,29,32,38,276,104,44,44,33,1
1830,49.67514705657959,31,31,44,259,90,39,38,33,1
1831,49.69812893867493,30,34,52,248,82,36,37,33,1
1832,49.71246647834778,30,33,49,231,70,35,38,33,1
1833,49.735543727874756,34,35,55,236,77,33,38,37,1
1834,49.7575261592865,37,37,56,297,94,35,36,39,1
1835,49.772911071777344,35,37,55,287,103,36,39,41,1
1836,49.795090198516846,32,34,46,288,112,36,38,38,1
1837,49.81812572479248,34,38,48,289,127,43,41,41,1
1838,49.832377195358276,37,42,50,307,147,52,48,45,1
1839,49.85488152503967,36,43,50,238,135,53,49,43,1
1840,49.87741470336914,38,47,47,348,130,56,53,46,1
1841,49.900195598602295,40,48,52,361,131,55,55,47,1
1842,49.914899587631226,41,47,54,391,130,53,57,45,1
1843,49.93778657913208,34,46,46,411,113,42,48,40,1
1844,49.960081577301025,37,49,56,407,128,55,52,44,1
1845,49.97508406639099,35,49,64,324,132,56,51,42,1
1846,49.9979465007782,33,49,59,303,128,59,49,42,1
1847,50.019861698150635,33,48,58,298,126,57,45,42,1
1848,50.03528547286987,34,48,60,248,123,66,50,44,1
1849,50.05783200263977,36,51,57,263,118,62,55,50,1
1850,50.08021903038025,36,50,48,299,114,61,54,47,1
1851,50.09486770629883,35,49,48,313,121,58,53,47,1
1852,50.11742329597473,34,49,48,299,115,58,57,49,1
1853,50.139989376068115,32,45,43,320,110,46,54,43,1
1854,50.15535044670105,26,39,35,326,114,38,46,32,1
1855,50.17784595489502,29,41,33,347,115,36,49,34,1
1856,50.19988417625427,31,39,30,361,110,39,50,36,1
1857,50.21512722969055,31,36,31,348,113,41,46,33,1
1858,50.23788404464722,31,38,37,353,108,43,47,35,1
1859,50.2599151134491,34,37,37,389,110,47,49,38,1
1860,50.27591824531555,33,33,45,329,110,47,42,36,1
1861,50.29738783836365,33,41,52,387,132,50,43,34,1
1862,50.31998944282532,41,48,57,476,150,68,58,45,1
1863,50.335063219070435,44,48,61,480,156,72,60,48,1
1864,50.35855746269226,47,53,66,452,155,80,68,55,1
1865,50.38002324104309,47,55,63,475,152,80,69,58,1
1866,50.39507269859314,45,49,58,407,130,80,68,58,1
1867,50.417452335357666,39,44,50,320,104,65,58,49,1
1868,50.44004034996033,38,46,50,304,104,62,54,46,1
1869,50.45500349998474,36,45,46,327,90,51,48,37,1
1870,50.477355003356934,33,40,44,297,95,49,47,36,1
1871,50.49995279312134,36,45,47,306,95,48,51,37,1
1872,50.517513275146484,40,49,49,314,93,48,51,40,1
1873,50.5378623008728,41,48,45,314,81,47,52,41,1
1874,50.55991244316101,39,44,41,276,85,42,47,41,1
1875,50.574976444244385,41,45,43,289,85,42,47,40,1
1876,50.596972942352295,38,44,44,308,92,46,46,40,1
1877,50.62067198753357,42,45,55,339,113,57,56,53,1
1878,50.63491916656494,40,42,52,314,111,57,57,51,1
1879,50.65760040283203,38,40,55,341,111,58,59,51,1
1880,50.68010115623474,38,39,57,390,128,60,60,54,1
1881,50.69488477706909,37,37,60,405,128,56,57,52,1
1882,50.71752190589905,29,30,55,409,124,43,42,40,1
1883,50.74024987220764,29,32,61,440,138,46,40,44,1
1884,50.75502371788025,27,35,60,409,134,45,37,43,1
1885,50.77772283554077,33,39,54,407,128,44,37,40,1
1886,50.79966378211975,34,38,46,379,122,42,37,39,1
1887,50.81453490257263,33,40,50,329,111,41,41,38,1
1888,50.837568521499634,37,42,43,295,99,42,40,41,1
1889,50.86028337478638,36,39,42,335,114,40,40,40,1
1890,50.88237190246582,34,38,44,287,110,43,40,38,1
1891,50.897387742996216,41,44,50,307,118,55,53,46,1
1892,50.919822216033936,42,42,41,326,133,57,52,44,1
1893,50.94248414039612,41,39,44,348,159,60,52,41,1
1894,50.95739507675171,41,37,46,359,157,59,49,42,1
1895,50.98008871078491,44,44,52,358,151,70,62,53,1
1896,51.00287485122681,37,37,51,343,155,65,52,46,1
1897,51.01791071891785,39,36,58,315,140,63,53,47,1
1898,51.04037261009216,44,47,67,322,119,82,72,59,1
1899,51.06236147880554,44,48,70,333,110,82,73,60,1
1900,51.07774043083191,40,40,67,337,105,70,62,51,1
1901,51.09986877441406,40,41,64,347,95,67,61,52,1
1902,51.122549295425415,39,43,59,371,102,66,64,55,1
1903,51.137463092803955,29,32,44,344,85,32,39,39,1
1904,51.15986895561218,30,36,35,302,82,34,43,39,1
1905,51.182448625564575,29,34,38,305,84,32,44,39,1
1906,51.19755029678345,33,41,41,279,78,38,49,42,1
1907,51.220378160476685,31,39,40,277,65,37,47,38,1
1908,51.242570638656616,34,39,45,276,66,39,49,36,1
1909,51.25771641731262,34,37,46,254,72,42,44,38,1
1910,51.27992367744446,36,39,44,310,80,45,44,39,1
1911,51.30237436294556,33,36,46,330,87,43,42,36,1
1912,51.31762409210205,34,42,51,332,106,48,46,37,1
1913,51.33999586105347,38,54,50,370,121,56,57,44,1
1914,51.36251139640808,38,57,50,396,121,53,60,42,1
1915,51.377461194992065,40,59,52,352,118,57,65,45,1
1916,51.400174379348755,42,62,52,357,121,60,68,50,1
1917,51.42253065109253,42,60,50,385,115,56,65,50,1
1918,51.437623262405396,37,53,50,383,99,48,56,45,1
1919,51.45946002006531,37,52,56,353,102,51,58,49,1
1920,51.482470750808716,37,50,53,352,99,49,53,45,1
1921,51.497445583343506,36,45,51,339,100,44,48,39,1
1922,51.51993536949158,36,47,51,336,92,51,56,45,1
1923,51.542582511901855,35,45,51,308,96,56,53,44,1
1924,51.557750940322876,33,44,43,326,89,52,49,41,1
1925,51.58001756668091,30,42,49,325,93,49,48,42,1
1926,51.60327649116516,29,39,49,312,84,48,44,42,1
1927,51.61792206764221,28,38,48,271,90,49,38,38,1
1928,51.6402485370636,28,42,50,263,85,48,41,39,1
1929,51.66249990463257,31,40,55,266,91,50,43,40,1
1930,51.677491903305054,34,41,53,274,101,51,44,42,1
1931,51.70013380050659,35,41,50,288,97,52,47,42,1
1932,51.722817182540894,39,47,55,269,94,53,55,48,1
1933,51.73786735534668,40,44,51,272,94,49,53,47,1
1934,51.75988268852234,41,46,46,285,97,50,54,50,1
1935,51.78199338912964,41,51,46,254,88,51,58,55,1
1936,51.80606031417847,43,61,47,336,102,61,68,60,1
1937,51.82005000114441,39,59,34,350,107,54,59,55,1
1938,51.84245300292969,43,62,41,374,115,58,63,59,1
1939,51.86585879325867,40,60,42,391,116,57,63,54,1
1940,51.880433082580566,39,57,42,398,110,56,59,48,1
1941,51.90260100364685,37,48,44,394,103,47,47,41,1
1942,51.92576456069946,39,45,56,429,116,58,51,44,1
1943,51.939993381500244,36,46,53,400,109,58,51,44,1
1944,51.96238899230957,36,45,52,366,96,60,48,46,1
1945,51.985708713531494,39,52,57,359,123,75,56,50,1
1946,51.99974226951599,38,50,56,334,131,75,54,49,1
1947,52.02258563041687,34,46,45,294,118,64,50,43,1
1948,52.04609298706055,35,43,48,294,124,62,46,40,1
1949,52.060028314590454,37,45,50,352,137,58,45,39,1
1950,52.082549810409546,33,33,45,349,113,36,32,34,1
1951,52.10616111755371,32,36,44,315,105,43,37,36,1
1952,52.12015628814697,33,37,47,283,97,47,39,43,1
1953,52.14249920845032,28,35,44,286,86,45,39,41,1
1954,52.16625666618347,26,30,44,239,85,45,38,39,1
1955,52.18006134033203,28,33,42,260,112,46,38,39,1
1956,52.2025682926178,28,30,43,259,113,40,35,39,1
1957,52.225947856903076,27,30,43,313,126,39,33,31,1
1958,52.24007725715637,41,46,64,358,180,60,52,50,1
1959,52.262722969055176,47,54,68,336,180,72,63,59,1
1960,52.28654646873474,48,58,67,355,170,78,70,62,1
1961,52.299954652786255,56,68,73,363,182,93,83,72,1
1962,52.322441816329956,57,69,72,393,181,94,86,75,1
1963,52.34593224525452,48,60,55,363,127,81,75,63,1
1964,52.360772132873535,41,53,50,371,126,73,69,58,1
1965,52.38341736793518,43,55,56,375,126,74,71,58,1
1966,52.40724205970764,30,43,51,354,105,58,57,45,1
1967,52.420228004455566,31,44,57,291,99,56,52,42,1
1968,52.443485260009766,35,49,68,340,121,64,54,45,1
1969,52.465312242507935,35,51,65,333,120,65,57,44,1
1970,52.47960066795349,32,43,63,297,115,52,45,40,1
1971,52.502806425094604,34,46,63,305,116,59,49,40,1
1972,52.52567958831787,33,43,57,288,111,61,50,41,1
1973,52.53991508483887,31,45,44,223,96,63,55,44,1
1974,52.56355023384094,31,42,46,256,88,63,49,46,1
1975,52.58578109741211,31,42,40,269,84,64,50,47,1
1976,52.59995222091675,32,37,45,273,103,58,46,48,1
1977,52.62277555465698,30,40,45,273,105,56,46,48,1
1978,52.646225452423096,33,35,44,305,111,50,44,46,1
1979,52.66004204750061,35,36,45,310,109,47,44,42,1
1980,52.682767152786255,33,35,47,298,108,45,41,39,1
1981,52.705780267715454,30,39,38,323,87,41,45,37,1
1982,52.728166341781616,36,44,41,339,101,44,48,37,1
1983,52.74247908592224,31,40,40,315,81,36,42,32,1
1984,52.76590299606323,29,42,45,284,93,43,42,30,1
1985,52.788135051727295,35,44,46,314,105,45,49,36,1
1986,52.802085876464844,36,40,44,270,107,41,46,38,1
1987,52.82604742050171,32,33,42,276,96,38,39,35,1
1988,52.848278522491455,32,37,42,255,97,39,43,36,1
1989,52.8626127243042,35,35,40,257,99,38,41,37,1
1990,52.8857626914978,30,36,37,217,88,36,36,34,1
1991,52.908615827560425,31,36,40,244,95,39,38,32,1
1992,52.92261266708374,35,40,43,212,95,44,43,40,1
1993,52.946868896484375,36,37,43,232,97,45,39,40,1
1994,52.96836972236633,33,38,38,222,90,40,38,40,1
1995,52.98252081871033,34,38,45,236,107,46,39,40,1
1996,53.00588321685791,37,40,44,232,104,49,40,43,1
1997,53.02838110923767,32,36,43,242,105,43,37,38,1
1998,53.04298973083496,32,42,48,280,114,45,39,38,1
1999,53.065869092941284,36,47,54,283,116,55,48,43,1
2000,53.08846378326416,34,45,48,297,109,49,47,40,1
2001,53.10304522514343,32,44,52,315,116,48,51,39,1
2002,53.126126289367676,32,44,48,338,112,48,50,40,1
2003,53.14833068847656,31,43,45,294,105,50,53,43,1
2004,53.162556886672974,31,39,38,326,102,41,46,41,1
2005,53.186155796051025,34,46,47,333,110,50,52,47,1
2006,53.208547592163086,30,43,42,338,107,47,45,43,1
2007,53.222662687301636,33,45,47,314,110,48,45,42,1
2008,53.24580454826355,35,41,46,314,111,46,41,39,1
2009,53.26824712753296,32,41,44,299,115,47,45,39,1
2010,53.28278946876526,31,35,35,274,103,37,38,35,1
2011,53.305779695510864,32,36,34,224,99,42,36,36,1
2012,53.328312158584595,35,43,40,224,101,50,42,43,1
2013,53.343090534210205,34,44,46,220,100,51,42,43,1
2014,53.366278409957886,33,40,51,264,110,47,37,38,1
2015,53.38825511932373,36,40,53,312,118,48,37,38,1
2016,53.40255069732666,39,45,59,331,117,48,43,41,1
2017,53.425843477249146,38,39,58,325,111,39,37,36,1
2018,53.44868040084839,41,47,53,374,112,38,41,39,1
2019,53.462130308151245,40,46,51,325,93,39,42,39,1
2020,53.48468542098999,38,48,53,293,89,40,43,38,1
2021,53.508217334747314,37,43,47,310,101,36,39,35,1
2022,53.52269458770752,36,43,48,340,121,42,45,40,1
2023,53.545788049697876,35,34,48,290,127,42,44,42,1
2024,53.56842088699341,36,35,46,304,127,43,43,44,1
2025,53.582515239715576,34,35,40,296,124,46,44,43,1
2026,53.60491371154785,39,44,41,255,114,50,49,51,1
2027,53.62826991081238,42,46,41,257,99,49,49,49,1
2028,53.64255976676941,42,50,45,270,92,50,50,48,1
2029,53.66517996788025,43,51,53,308,95,51,51,45,1
2030,53.688698291778564,45,51,58,313,97,50,48,46,1
2031,53.71075701713562,40,45,65,326,116,57,44,40,1
2032,53.72530913352966,37,44,61,333,123,58,43,40,1
2033,53.74835276603699,33,39,59,336,125,55,40,38,1
2034,53.77118492126465,33,39,54,307,133,59,41,41,1
2035,53.785112619400024,31,34,50,298,134,58,44,42,1
2036,53.81004810333252,35,37,50,335,130,52,43,41,1
2037,53.830857038497925,34,36,51,311,119,55,44,40,1
2038,53.84539031982422,37,39,60,346,128,64,47,40,1
2039,53.86826515197754,36,38,65,354,142,61,46,37,1
2040,53.89073204994202,36,38,64,353,137,60,43,37,1
2041,53.905290603637695,31,41,59,305,124,59,48,39,1
2042,53.92853927612305,32,42,58,295,126,52,46,40,1
2043,53.95076775550842,31,42,49,297,122,42,42,39,1
2044,53.965105056762695,33,41,45,290,100,41,41,42,1
2045,53.988250970840454,33,41,50,290,96,41,41,40,1
2046,54.011075496673584,34,34,49,307,100,41,41,41,1
2047,54.0251145362854,34,36,53,390,114,53,47,44,1
2048,54.04826617240906,32,35,59,390,116,50,46,43,1
2049,54.07138681411743,31,40,56,374,116,53,50,43,1
2050,54.085120677948,32,44,52,422,116,52,51,45,1
2051,54.108519315719604,30,44,49,415,113,50,49,42,1
2052,54.13064908981323,32,40,46,344,104,42,43,41,1
2053,54.14506912231445,39,40,40,318,103,54,47,47,1
2054,54.16823983192444,39,41,42,340,101,56,51,51,1
2055,54.19041347503662,42,44,54,269,100,57,50,51,1
2056,54.205214500427246,41,43,54,302,112,62,53,51,1
2057,54.228248834609985,37,44,56,297,109,61,53,48,1
2058,54.252063035964966,33,47,63,268,105,55,51,44,1
2059,54.26507592201233,35,44,70,271,106,56,49,44,1
2060,54.288769006729126,34,41,62,277,105,55,49,42,1
2061,54.31125068664551,37,44,61,256,94,50,46,41,1
2062,54.325058460235596,37,42,58,261,91,47,43,41,1
2063,54.34823966026306,36,38,57,306,96,43,45,39,1
2064,54.371349811553955,33,37,45,291,94,37,40,34,1
2065,54.38510179519653,31,33,48,300,105,37,39,35,1
2066,54.4085168838501,27,33,50,324,108,38,39,33,1
2067,54.431111574172974,38,41,52,352,120,46,45,43,1
2068,54.4449520111084,37,44,47,342,107,46,41,44,1
2069,54.46824645996094,38,46,48,355,108,48,43,46,1
2070,54.49837040901184,38,47,48,362,97,48,43,46,1
2071,54.50481200218201,39,47,49,332,88,45,42,45,1
2072,54.527748823165894,33,42,46,289,64,39,38,36,1
2073,54.55111241340637,32,36,44,273,65,35,37,32,1
2074,54.565160512924194,35,40,45,248,71,38,37,33,1
2075,54.588433027267456,36,39,49,245,77,43,38,34,1
2076,54.61090040206909,37,40,46,268,86,42,39,34,1
2077,54.63367986679077,33,40,45,269,88,39,37,34,1
2078,54.64826822280884,35,43,44,275,94,44,41,37,1
2079,54.67083024978638,31,37,40,280,85,38,38,32,1
2080,54.693302154541016,31,35,32,265,86,34,40,32,1
2081,54.70825433731079,33,38,34,239,90,42,42,38,1
2082,54.73090481758118,37,39,39,240,86,44,45,40,1
2083,54.75468468666077,35,38,42,207,83,40,43,38,1
2084,54.76836562156677,35,38,48,254,86,40,43,36,1
2085,54.79077076911926,37,39,47,243,89,41,43,41,1
2086,54.813366174697876,34,36,46,245,87,36,39,39,1
2087,54.828285932540894,30,34,47,241,92,40,37,37,1
2088,54.85121965408325,31,36,47,284,92,40,40,40,1
2089,54.873687744140625,32,39,40,230,89,40,40,45,1
2090,54.88826060295105,31,42,43,248,104,45,44,45,1
2091,54.91130208969116,32,40,47,314,121,50,44,43,1
2092,54.93338370323181,37,48,52,324,131,52,48,50,1
2093,54.94838523864746,36,45,51,288,129,52,44,47,1
2094,54.97104573249817,38,44,58,353,143,60,50,46,1
2095,54.99369525909424,35,39,54,349,126,53,42,40,1
2096,55.00796604156494,39,47,51,309,112,52,44,44,1
2097,55.030723094940186,36,42,42,334,100,50,45,40,1
2098,55.05325102806091,40,48,52,364,115,58,55,45,1
2099,55.067790031433105,38,53,53,333,109,53,56,42,1
2100,55.09081840515137,39,53,59,330,118,53,57,42,1
2101,55.11338448524475,39,48,61,309,113,52,55,41,1
2102,55.127583503723145,37,45,64,314,122,50,50,39,1
2103,55.151166677474976,32,40,54,322,112,45,44,36,1
2104,55.173686027526855,30,30,47,295,106,40,35,35,1
2105,55.18797755241394,32,34,42,300,101,47,41,38,1
2106,55.210819244384766,26,33,37,296,104,48,43,37,1
2107,55.23338794708252,27,32,34,250,88,47,44,36,1
2108,55.24751830101013,31,34,40,221,95,49,42,39,1
2109,55.271151065826416,31,34,42,221,103,52,44,41,1
2110,55.293060064315796,27,29,41,198,99,47,40,41,1
2111,55.30715036392212,32,33,43,235,97,46,39,39,1
2112,55.33081364631653,33,33,41,270,107,45,38,39,1
2113,55.353580951690674,33,33,42,273,98,40,36,34,1
2114,55.36763405799866,34,41,46,284,88,40,38,35,1
2115,55.390862464904785,37,46,54,328,111,44,40,37,1
2116,55.41367483139038,33,43,55,312,113,40,37,38,1
2117,55.42757034301758,34,43,55,281,109,45,37,39,1
2118,55.45135188102722,34,52,54,263,112,52,43,45,1
2119,55.47373080253601,35,48,47,244,108,50,39,44,1
2120,55.487518548965454,34,45,48,231,88,49,36,43,1
2121,55.51128673553467,35,46,46,214,85,54,37,44,1
2122,55.533504247665405,31,46,48,228,87,52,38,43,1
2123,55.54720950126648,30,36,45,241,86,48,34,39,1
2124,55.57124996185303,26,36,48,272,98,53,38,36,1
2125,55.59310579299927,34,47,43,274,98,58,46,42,1
2126,55.61545157432556,34,46,39,300,100,56,48,43,1
2127,55.631041288375854,39,47,39,298,97,54,48,43,1
2128,55.65391778945923,40,47,42,278,104,56,49,45,1
2129,55.67581510543823,42,48,44,282,97,54,49,50,1
2130,55.691256523132324,35,39,39,257,92,48,44,44,1
2131,55.713441610336304,34,38,43,225,93,47,45,43,1
2132,55.73590326309204,31,38,43,286,102,58,53,47,1
2133,55.750895261764526,32,39,44,310,105,60,56,46,1
2134,55.77387619018555,35,38,46,308,109,59,56,42,1
2135,55.79580640792847,39,42,52,336,129,66,61,45,1
2136,55.81155848503113,39,44,61,343,127,65,59,42,1
2137,55.833396673202515,41,50,62,287,117,57,59,42,1
2138,55.85602283477783,38,50,60,271,109,60,59,45,1
2139,55.871278524398804,34,48,57,252,105,62,59,43,1
2140,55.89367747306824,30,47,53,192,79,54,54,44,1
2141,55.91585946083069,38,54,41,240,75,57,61,51,1
2142,55.93026375770569,35,48,40,279,80,56,53,47,1
2143,55.95383286476135,36,53,40,314,70,51,55,50,1
2144,55.97590661048889,39,56,48,313,73,50,52,53,1
2145,55.99035954475403,39,52,53,342,83,53,52,51,1
2146,56.0138475894928,34,45,55,321,87,49,43,45,1
2147,56.037086725234985,33,50,52,294,88,49,49,45,1
2148,56.05034112930298,33,44,52,289,96,45,44,36,1
2149,56.074134826660156,33,42,46,313,90,45,46,36,1
2150,56.0961480140686,34,45,39,304,83,44,47,32,1
2151,56.112059116363525,32,50,38,304,89,51,54,34,1
2152,56.13344669342041,35,50,39,323,92,51,54,34,1
2153,56.15659809112549,33,48,41,290,105,56,55,38,1
2154,56.170082330703735,32,47,44,309,119,55,53,34,1
2155,56.194026947021484,31,45,45,291,120,52,50,39,1
2156,56.215747117996216,33,41,45,277,122,52,46,38,1
2157,56.23104166984558,34,39,47,278,126,58,48,40,1
2158,56.25323152542114,36,41,45,280,115,50,45,39,1
2159,56.276108741760254,35,44,41,269,108,53,50,40,1
2160,56.290024757385254,35,46,41,282,107,53,49,39,1
2161,56.31339931488037,31,43,41,301,96,46,44,38,1
2162,56.3361074924469,35,47,47,285,104,40,38,38,1
2163,56.35021162033081,33,47,48,276,100,43,40,37,1
2164,56.373613595962524,34,47,54,287,107,39,32,41,1
2165,56.395368576049805,36,45,55,297,110,42,35,40,1
2166,56.410395860672,39,50,56,274,119,44,42,43,1
2167,56.43346309661865,33,43,50,277,103,40,40,39,1
2168,56.456244707107544,34,48,56,288,102,47,44,44,1
2169,56.47148394584656,33,45,54,246,91,45,45,39,1
2170,56.49336814880371,34,52,52,252,96,53,57,41,1
2171,56.516202449798584,34,52,47,252,82,52,55,37,1
2172,56.53807187080383,40,57,57,233,80,57,57,47,1
2173,56.55290627479553,40,51,49,248,102,52,52,42,1
2174,56.57582974433899,44,51,47,308,109,52,52,42,1
2175,56.59842538833618,41,47,48,301,98,42,36,39,1
2176,56.61488485336304,42,47,52,348,110,55,44,42,1
2177,56.635366916656494,38,41,47,415,122,55,46,33,1
2178,56.6579647064209,37,42,51,420,105,54,47,34,1
2179,56.6746289730072,35,44,51,377,98,61,57,41,1
2180,56.69514465332031,34,39,52,437,104,61,56,41,1
2181,56.71785593032837,37,39,54,429,101,51,50,43,1
2182,56.735137939453125,39,41,54,385,108,58,51,49,1
2183,56.75526690483093,39,46,51,496,127,62,53,49,1
2184,56.77795481681824,36,50,49,502,134,59,49,43,1
2185,56.79509949684143,38,55,53,450,154,70,55,47,1
2186,56.81505632400513,35,53,51,419,149,73,55,44,1
2187,56.837708473205566,30,51,48,406,135,64,53,39,1
2188,56.854591369628906,28,47,46,223,118,63,50,41,1
2189,56.87520885467529,30,42,46,318,121,60,49,42,1
2190,56.89787673950195,30,42,42,338,101,55,52,39,1
2191,56.91444373130798,29,43,39,345,102,49,52,36,1
2192,56.93526554107666,37,49,40,386,114,66,61,45,1
2193,56.95777654647827,40,57,43,402,118,67,64,48,1
2194,56.97581243515015,40,55,44,310,106,66,61,47,1
2195,56.99523711204529,40,57,50,311,113,66,60,50,1
2196,57.01817750930786,40,55,49,307,113,68,63,55,1
2197,57.03511714935303,33,49,44,259,102,51,53,46,1
2198,57.05562472343445,36,44,47,238,100,54,57,46,1
2199,57.077741622924805,36,42,49,304,108,55,57,45,1
2200,57.09449076652527,36,41,46,281,92,47,52,43,1
2201,57.11536121368408,40,43,52,286,95,51,51,40,1
2202,57.139577865600586,41,42,55,276,95,53,52,44,1
2203,57.15421462059021,37,39,55,297,93,45,46,40,1
2204,57.17511510848999,35,40,55,230,83,43,44,41,1
2205,57.19769072532654,32,35,52,244,87,41,41,37,1
2206,57.21444058418274,28,35,49,246,83,36,37,38,1
2207,57.23541283607483,29,35,47,291,97,36,39,37,1
2208,57.25784969329834,28,34,44,280,98,36,37,39,1
2209,57.282065629959106,28,36,39,298,98,36,39,40,1
2210,57.2953245639801,31,33,40,290,97,39,41,42,1
2211,57.31774616241455,30,31,34,296,102,33,40,39,1
2212,57.33488321304321,28,37,38,280,91,37,38,40,1
2213,57.35789704322815,38,51,49,292,115,49,54,52,1
2214,57.37735891342163,39,50,54,294,121,54,56,57,1
2215,57.393799781799316,38,50,56,315,138,62,64,60,1
2216,57.41712141036987,40,52,63,306,143,67,68,64,1
2217,57.438050985336304,47,54,62,350,151,81,80,68,1
2218,57.454575538635254,43,46,56,342,138,89,78,65,1
2219,57.47733211517334,43,46,55,360,133,89,76,61,1
2220,57.49773120880127,49,60,65,329,131,99,82,65,1
2221,57.5201849937439,54,67,72,400,143,105,85,69,1
2222,57.537323236465454,49,65,71,366,133,94,76,65,1
2223,57.55768418312073,46,65,71,390,131,84,69,56,1
2224,57.579633951187134,49,69,74,378,130,82,69,59,1
2225,57.59780263900757,46,58,65,379,117,68,54,50,1
2226,57.61805868148804,44,60,61,307,100,64,57,50,1
2227,57.64316201210022,43,58,62,312,102,63,55,51,1
2228,57.6574809551239,48,57,69,326,119,68,58,58,1
2229,57.67820620536804,54,65,72,315,136,79,70,70,1
2230,57.699795961380005,56,67,72,307,132,79,74,73,1
2231,57.71627068519592,51,57,67,319,139,73,64,68,1
2232,57.73772406578064,52,56,64,281,137,71,63,66,1
2233,57.76097846031189,46,56,52,217,120,63,61,60,1
2234,57.77735185623169,38,43,45,192,103,50,47,43,1
2235,57.79783082008362,36,38,41,191,110,49,47,43,1
2236,57.82020831108093,34,35,37,227,96,43,45,41,1
2237,57.83776521682739,39,45,44,261,107,50,54,45,1
2238,57.85744905471802,41,50,44,269,106,52,55,47,1
2239,57.879701375961304,39,48,42,277,102,50,56,46,1
2240,57.897584676742554,41,51,50,275,93,49,58,45,1
2241,57.91804242134094,46,55,57,218,90,62,66,50,1
2242,57.94027137756348,45,51,65,226,102,71,71,50,1
2243,57.957242012023926,43,46,67,257,117,71,69,48,1
2244,57.97763252258301,46,50,66,253,121,71,69,51,1
2245,58.000094175338745,43,52,63,291,137,69,66,49,1
2246,58.01690697669983,38,48,58,313,144,58,59,43,1
2247,58.03810715675354,39,46,45,304,130,44,46,40,1
2248,58.06029653549194,41,43,43,279,117,41,43,39,1
2249,58.07638454437256,38,38,38,321,119,41,41,37,1
2250,58.09742474555969,35,34,46,315,96,41,38,37,1
2251,58.12036657333374,35,34,45,296,84,44,38,39,1
2252,58.13755822181702,32,32,45,290,81,39,39,36,1
2253,58.15772199630737,37,44,48,289,80,49,54,47,1
2254,58.18019223213196,37,44,49,247,74,48,52,45,1
2255,58.19716000556946,38,43,42,259,90,51,51,42,1
2256,58.21899747848511,38,49,42,271,90,50,53,43,1
2257,58.240474700927734,36,49,44,263,91,51,51,43,1
2258,58.257482290267944,30,40,41,259,93,42,39,32,1
2259,58.2780179977417,32,44,43,265,111,50,48,35,1
2260,58.30045413970947,32,43,41,227,111,46,46,33,1
2261,58.31688356399536,32,37,43,215,124,45,43,31,1
2262,58.33935880661011,32,37,39,223,121,45,44,31,1
2263,58.36019706726074,36,39,44,237,130,53,42,36,1
2264,58.37785220146179,36,37,47,246,117,48,34,36,1
2265,58.397865295410156,41,45,50,260,110,54,46,42,1
2266,58.421934604644775,42,46,48,277,97,55,47,40,1
2267,58.4431095123291,45,50,61,286,110,59,50,48,1
2268,58.45831608772278,45,53,59,273,99,57,56,49,1
2269,58.48019456863403,43,52,57,288,111,54,56,47,1
2270,58.50231194496155,37,45,53,284,106,46,47,44,1
2271,58.51771283149719,37,47,54,270,106,50,48,47,1
2272,58.540438413619995,39,44,51,269,103,46,46,44,1
2273,58.562732458114624,36,39,55,273,108,46,43,44,1
2274,58.5773446559906,35,37,60,254,104,51,44,45,1
2275,58.59980869293213,36,36,60,250,105,51,45,45,1
2276,58.623138666152954,34,34,61,255,109,49,43,42,1
2277,58.63835287094116,33,32,54,242,108,50,51,44,1
2278,58.66213274002075,33,35,49,251,115,50,47,40,1
2279,58.682671546936035,35,36,42,246,113,46,47,41,1
2280,58.69723033905029,39,39,45,255,118,48,52,48,1
2281,58.72028374671936,40,38,44,240,117,53,60,55,1
2282,58.742976665496826,37,38,42,239,113,52,55,54,1
2283,58.757911682128906,42,39,49,262,115,58,63,62,1
2284,58.78031873703003,43,39,49,279,115,57,63,61,1
2285,58.80270171165466,43,43,47,252,110,57,60,59,1
2286,58.817789793014526,48,48,52,276,107,51,52,57,1
2287,58.840370893478394,47,47,56,273,103,48,51,54,1
2288,58.86277508735657,42,44,50,262,97,40,40,44,1
2289,58.878403663635254,42,47,50,237,90,42,41,43,1
2290,58.90021562576294,40,50,51,257,103,52,46,44,1
2291,58.92294669151306,34,50,45,247,104,59,52,44,1
2292,58.93773031234741,39,56,54,310,112,67,58,48,1
2293,58.96025252342224,41,61,55,302,106,68,66,51,1
2294,58.98274779319763,41,57,54,302,106,66,65,50,1
2295,58.99832773208618,42,52,65,341,99,60,60,47,1
2296,59.0208044052124,43,47,64,353,107,53,56,43,1
2297,59.04291820526123,37,46,57,302,99,44,51,38,1
2298,59.05840563774109,35,47,58,284,101,40,42,37,1
2299,59.08050537109375,34,50,59,316,104,43,44,38,1
2300,59.102802991867065,34,53,48,260,99,47,48,41,1
2301,59.1178982257843,33,53,47,237,84,46,49,42,1
2302,59.14049792289734,35,52,44,324,85,44,47,43,1
2303,59.16272258758545,35,45,40,333,78,41,47,42,1
2304,59.17776966094971,34,43,41,303,74,41,46,44,1
2305,59.20013427734375,37,45,44,337,74,43,51,46,1
2306,59.22495198249817,42,57,50,333,92,63,63,55,1
2307,59.23800086975098,44,61,55,243,99,72,68,57,1
2308,59.25994086265564,45,63,56,315,118,73,69,60,1
2309,59.282785415649414,47,64,57,325,139,77,71,63,1
2310,59.30543828010559,42,60,52,291,138,74,67,59,1
2311,59.31986618041992,39,49,49,307,127,58,57,51,1
2312,59.34270930290222,34,39,45,328,122,47,48,46,1
2313,59.44145107269287,39,52,53,268,104,49,47,42,1
2314,59.46285080909729,38,50,52,260,77,43,46,40,1
2315,59.48532032966614,40,49,55,262,82,47,45,45,1
2316,59.50026893615723,39,48,60,278,79,48,46,45,1
2317,59.523667335510254,36,42,53,263,83,45,45,42,1
2318,59.54528760910034,32,35,50,284,90,43,42,40,1
2319,59.56054377555847,30,36,52,335,90,47,44,42,1
2320,59.58441519737244,29,34,46,341,90,39,39,36,1
2321,59.60472106933594,32,34,37,331,96,41,37,39,1
2322,59.620216846466064,33,34,44,364,108,46,37,38,1
2323,59.642810106277466,34,37,51,407,116,46,36,39,1
2324,59.6653265953064,37,40,54,360,118,47,39,39,1
2325,59.68029594421387,36,44,54,345,117,48,42,41,1
2326,59.702765703201294,33,46,54,327,113,45,43,38,1
2327,59.72593092918396,32,44,57,299,102,43,44,38,1
2328,59.74051284790039,30,43,50,239,91,43,45,37,1
2329,59.77109408378601,26,43,48,252,82,39,47,37,1
2330,59.78542494773865,29,44,49,256,83,37,47,38,1
2331,59.80021119117737,30,44,55,261,82,42,49,40,1
2332,59.822404623031616,32,48,50,260,90,45,50,43,1
2333,59.844712257385254,33,48,52,241,84,42,48,43,1
2334,59.86006689071655,32,44,51,235,98,43,42,39,1
2335,59.88279724121094,29,44,51,251,99,44,44,38,1
2336,59.90541100502014,31,43,42,248,104,39,41,36,1
2337,59.919729709625244,28,39,38,249,96,32,35,29,1
2338,59.94525098800659,33,52,39,255,100,42,45,34,1
2339,59.973594188690186,38,57,38,256,89,50,57,43,1
2340,59.98026466369629,37,55,38,302,96,49,54,41,1
2341,60.002177476882935,37,55,41,303,97,53,56,44,1
2342,60.02558946609497,39,57,46,320,120,60,58,46,1
2343,60.040167808532715,36,45,50,340,125,58,54,47,1
2344,60.06282138824463,32,36,52,344,137,52,41,41,1
2345,60.08541178703308,44,50,58,280,140,65,56,56,1
2346,60.1005539894104,44,52,56,285,137,66,57,54,1
2347,60.13106298446655,44,51,52,279,122,59,56,55,1
2348,60.145742654800415,44,52,47,247,122,57,53,52,1
2349,60.16057562828064,44,53,44,263,111,57,54,52,1
2350,60.18284821510315,33,39,37,294,122,51,40,38,1
2351,60.20522713661194,35,35,50,330,134,50,38,41,1
2352,60.220187187194824,33,33,52,325,133,51,37,40,1
2353,60.24277186393738,32,29,51,333,123,49,36,38,1
2354,60.26531410217285,33,31,55,317,118,50,36,36,1
2355,60.2804274559021,32,38,56,288,105,51,41,36,1
2356,60.30327796936035,32,41,47,283,96,51,42,32,1
2357,60.325563192367554,37,46,55,293,99,56,44,35,1
2358,60.34778833389282,41,53,57,285,105,61,53,42,1
2359,60.362833738327026,39,50,51,291,110,59,53,43,1
2360,60.38526248931885,40,47,49,298,103,51,49,43,1
2361,60.41628623008728,38,42,45,241,95,50,45,42,1
2362,60.422709226608276,34,37,36,245,94,45,44,39,1
2363,60.445306062698364,30,29,39,255,93,39,35,33,1
2364,60.46761512756348,31,30,43,277,104,40,34,31,1
2365,60.48284077644348,31,33,43,290,102,36,37,32,1
2366,60.50542712211609,34,38,56,322,105,40,43,37,1
