time,chanel1,chanel2,chanel3,chanel4,chanel5,chanel6,chanel7,chanel8,position
18.04884624481201,34,28,37,75,51,42,45,35,1
18.065104484558105,36,31,35,71,47,42,43,36,1
18.08593249320984,34,41,43,73,59,51,49,34,1
18.109233617782593,34,40,41,66,56,48,46,32,1
18.126763105392456,33,36,37,56,52,42,42,32,1
18.146551847457886,33,42,42,63,55,43,43,34,1
18.169134378433228,31,40,41,62,55,41,42,35,1
18.18663239479065,34,33,33,47,40,30,34,38,1
18.206149578094482,36,42,35,54,44,34,35,39,1
18.2290678024292,35,43,34,54,43,33,36,38,1
18.246461153030396,35,40,31,49,42,32,38,37,1
18.26680040359497,34,41,29,50,40,33,38,33,1
18.289010286331177,33,39,30,48,39,34,39,31,1
18.305910348892212,36,33,32,47,44,32,41,31,1
18.32592511177063,35,35,33,52,50,35,41,31,1
18.348962783813477,36,33,32,51,49,35,37,29,1
18.365115642547607,37,36,33,52,51,35,36,33,1
18.386067867279053,38,37,36,56,52,35,36,30,1
18.409016132354736,33,36,33,51,43,34,33,30,1
18.426711559295654,37,33,33,44,35,31,29,29,1
18.44606876373291,35,35,37,46,39,31,32,31,1
18.469482898712158,33,34,38,49,36,32,34,26,1
18.48577070236206,31,37,40,56,43,32,37,29,1
18.506423234939575,34,39,42,60,47,31,36,29,1
18.52895951271057,31,38,41,60,47,31,38,31,1
18.551761150360107,36,43,48,71,55,39,46,34,1
18.566717386245728,41,47,46,67,56,39,46,35,1
18.589115381240845,41,47,49,69,57,44,50,34,1
18.6062331199646,40,44,48,68,54,44,51,34,1
18.62835168838501,40,46,49,69,54,43,50,32,1
18.65018105506897,38,41,41,61,50,38,41,29,1
18.66604495048523,35,35,43,62,49,40,41,28,1
18.68659472465515,39,35,43,61,48,40,38,35,1
18.70899200439453,39,35,41,59,48,40,35,36,1
18.72802972793579,44,36,45,64,51,46,41,39,1
18.746605157852173,45,35,44,61,48,43,41,36,1
18.76911473274231,43,36,44,61,50,44,42,39,1
18.78624176979065,37,30,36,52,44,37,40,37,1
18.80720090866089,38,29,36,51,48,40,42,33,1
18.829087018966675,36,31,37,55,53,38,39,30,1
18.84641933441162,34,32,37,54,51,38,39,32,1
18.86690068244934,39,39,44,63,58,41,46,35,1
18.888906240463257,41,39,45,61,57,43,43,30,1
18.905821084976196,38,39,46,60,54,40,42,32,1
18.92647624015808,35,38,40,56,51,38,42,31,1
18.948851346969604,35,36,39,56,49,38,40,30,1
18.973416805267334,31,30,33,48,44,36,34,25,1
18.99410843849182,30,28,32,47,43,35,34,27,1
19.009172439575195,35,30,34,52,49,40,36,28,1
19.031480073928833,35,31,35,52,50,41,37,33,1
19.05412268638611,34,32,34,50,52,42,36,32,1
19.069023370742798,37,32,35,60,58,46,39,36,1
19.09198307991028,35,36,39,62,61,49,42,36,1
19.114509105682373,33,35,38,61,57,45,43,34,1
19.128991842269897,35,36,36,58,54,44,44,33,1
19.15153670310974,34,35,37,58,54,44,43,33,1
19.174499988555908,32,35,34,44,41,35,38,31,1
19.18956708908081,37,34,28,44,39,33,39,34,1
19.211596965789795,39,34,30,40,38,34,36,38,1
19.234033346176147,39,30,30,40,37,33,33,36,1
19.248990774154663,43,38,35,53,47,36,40,39,1
19.271458387374878,42,37,36,57,48,39,40,37,1
19.294017553329468,41,34,36,54,46,37,37,35,1
19.30954098701477,39,34,33,56,47,37,37,32,1
19.331498384475708,39,35,36,57,51,39,37,33,1
19.354126930236816,38,31,31,47,42,37,32,31,1
19.36901092529297,43,30,29,42,41,32,31,32,1
19.391228199005127,41,30,29,44,44,32,32,33,1
19.415347814559937,37,34,31,50,48,34,38,32,1
19.42904233932495,40,41,31,98,46,34,47,33,1
19.4515278339386,40,45,30,108,48,36,47,34,1
19.473977088928223,36,49,33,109,49,38,47,33,1
19.496569871902466,38,49,34,108,46,39,46,33,1
19.511487245559692,47,57,46,113,76,52,47,37,1
19.534659147262573,51,84,72,113,103,64,46,38,1
19.55649447441101,51,89,81,116,107,66,46,39,1
19.571582317352295,53,91,82,117,109,66,47,39,1
19.59402847290039,54,92,81,119,112,65,48,40,1
19.616581201553345,49,88,79,118,98,59,46,36,1
19.63165020942688,42,73,65,90,77,52,43,35,1
19.654154539108276,39,71,64,86,82,51,43,33,1
19.6762752532959,32,70,63,87,80,51,43,33,1
19.69182848930359,35,69,66,90,79,52,42,33,1
19.714004516601562,38,83,73,104,98,63,44,37,1
19.737391710281372,42,78,69,107,97,63,43,41,1
19.751463651657104,44,71,60,97,87,61,43,40,1
19.774107933044434,45,68,58,95,85,60,43,43,1
19.796913385391235,46,67,55,90,83,58,44,42,1
19.81168031692505,43,55,52,78,71,51,46,39,1
19.834142684936523,44,47,48,72,65,43,43,36,1
19.856460094451904,45,49,52,75,67,44,42,36,1
19.871503591537476,47,50,54,78,68,45,43,31,1
19.894026041030884,45,49,57,81,70,45,44,31,1
19.916717290878296,42,39,47,82,56,38,39,29,1
19.931440591812134,47,48,50,91,71,54,49,34,1
19.95430612564087,46,47,47,89,70,52,46,36,1
19.976775407791138,42,46,46,89,72,52,46,40,1
19.99151611328125,43,53,52,95,80,61,55,42,1
20.014271020889282,44,52,53,91,79,62,53,42,1
20.03652787208557,37,44,46,80,62,52,46,36,1
20.051486492156982,35,48,46,86,65,55,46,33,1
20.07396173477173,35,53,49,98,67,55,48,32,1
20.096994876861572,33,47,41,89,56,45,36,27,1
20.11146378517151,30,50,43,78,58,43,40,29,1
20.134034633636475,28,50,47,75,59,42,45,31,1
20.456562280654907,43,53,41,79,59,41,43,30,1
20.479822874069214,46,60,46,79,62,47,43,29,1
20.494171142578125,46,59,51,90,64,49,42,30,1
20.517128944396973,46,63,55,99,80,53,40,33,1
20.53988814353943,43,63,56,95,82,55,40,32,1
20.553682565689087,40,61,56,94,78,52,38,29,1
20.57660174369812,37,55,52,92,78,51,38,29,1
20.599868059158325,36,56,50,81,77,50,37,28,1
20.614060163497925,34,45,42,60,59,45,33,27,1
20.636625289916992,32,40,37,54,55,43,35,30,1
20.659866094589233,30,45,43,62,62,47,42,33,1
20.674701690673828,36,44,42,86,55,45,41,33,1
20.69660234451294,37,43,41,100,52,49,41,36,1
20.720119953155518,38,43,44,103,66,53,47,35,1
20.734597206115723,38,43,45,105,68,53,44,33,1
20.75655198097229,41,43,49,109,71,56,51,33,1
20.779703378677368,34,42,50,104,76,57,56,36,1
20.79411506652832,35,48,50,88,78,56,57,33,1
20.816529750823975,34,51,49,90,64,48,53,32,1
20.83960247039795,37,54,51,94,64,47,57,35,1
20.85428237915039,35,51,42,87,57,41,45,35,1
20.876660108566284,36,51,41,66,53,39,40,33,1
20.9003586769104,35,44,39,65,51,33,38,35,1
20.91372776031494,35,38,37,57,49,33,40,38,1
20.9366717338562,33,38,38,69,49,35,38,38,1
20.959356546401978,33,48,53,86,68,50,50,38,1
20.97550892829895,35,50,52,87,69,50,50,39,1
20.996551275253296,36,49,53,92,67,52,50,40,1
21.581735610961914,36,54,53,82,66,46,51,30,1
21.605134963989258,35,51,52,80,62,47,48,34,1
21.619837999343872,34,43,40,66,49,38,36,33,1
21.642333984375,33,42,42,73,53,39,38,33,1
21.65659475326538,33,39,42,77,50,36,39,32,1
21.67963933944702,31,36,43,80,48,38,39,29,1
21.701855897903442,31,38,45,84,50,38,39,28,1
21.716285943984985,35,37,45,85,50,39,37,29,1
21.739915370941162,34,40,44,81,50,41,38,32,1
21.761863470077515,34,41,40,71,50,40,35,34,1
21.776538610458374,36,36,34,62,51,37,32,34,1
21.80111527442932,37,36,33,67,55,38,37,34,1
21.82272434234619,35,38,30,65,55,36,36,33,1
21.83696150779724,35,34,31,60,52,31,34,31,1
21.859692811965942,36,31,34,64,49,34,34,30,1
21.88239336013794,35,30,34,65,49,36,37,29,1
21.896897077560425,35,31,35,61,47,40,36,32,1
21.919819831848145,29,36,38,68,54,44,38,33,1
21.9423565864563,32,41,36,68,55,44,37,32,1
21.95748519897461,33,43,37,66,58,42,40,34,1
21.98011350631714,32,46,36,60,53,38,36,36,1
22.002301454544067,31,42,30,52,47,32,30,33,1
22.01659917831421,33,39,33,61,44,30,33,33,1
22.039926767349243,31,32,35,62,42,31,34,34,1
22.063372135162354,26,32,32,60,37,34,34,32,1
22.076884746551514,31,28,33,62,39,34,34,30,1
22.09992551803589,31,32,35,65,42,37,38,32,1
22.123348712921143,30,28,31,59,38,34,35,32,1
22.136711359024048,34,28,29,58,37,32,37,32,1
22.159151554107666,36,30,30,57,38,30,39,34,1
22.182308197021484,34,31,32,57,36,31,40,34,1
22.196691274642944,38,29,31,55,35,27,38,33,1
22.219354391098022,39,31,33,58,35,29,38,33,1
22.24232530593872,41,32,36,63,43,33,40,38,1
22.257099628448486,43,30,35,62,42,32,37,45,1
22.279138803482056,42,32,34,65,47,32,37,43,1
22.302443265914917,40,32,35,81,47,33,37,43,1
22.32497501373291,41,34,33,72,46,30,36,45,1
22.339258909225464,64,50,40,67,43,31,32,42,1
22.36268424987793,68,58,48,77,54,37,43,35,1
22.384447813034058,75,57,50,75,51,37,46,40,1
22.3986759185791,82,59,50,61,51,39,54,46,1
22.42226243019104,84,62,53,72,58,43,64,49,1
22.445002794265747,72,56,47,86,58,42,73,52,1
22.45910358428955,72,52,40,79,49,39,75,54,1
22.4834988117218,66,62,43,80,49,39,77,59,1
22.505094289779663,74,64,44,77,52,38,76,62,1
22.51940941810608,75,64,42,71,46,34,80,62,1
22.542051315307617,73,61,44,62,52,40,80,62,1
22.564831972122192,87,63,48,64,52,40,77,62,1
22.579084396362305,95,65,48,65,54,46,85,60,1
22.603897094726562,84,62,49,64,52,49,90,57,1
22.62464952468872,93,61,47,61,51,51,83,60,1
22.640297174453735,106,68,45,51,40,45,84,67,1
22.66244411468506,95,69,40,43,39,45,86,67,1
22.68506693840027,92,65,38,45,37,44,82,69,1
22.699076890945435,95,74,38,46,39,42,99,72,1
22.723220825195312,112,85,42,48,43,54,122,86,1
22.745131254196167,116,84,45,48,48,58,124,89,1
22.759451389312744,129,97,57,70,62,79,139,97,1
22.78231644630432,151,121,58,71,60,79,153,116,1
22.80444884300232,156,132,61,75,62,78,147,117,1
22.819462537765503,142,132,60,74,62,72,137,110,1
22.84275221824646,135,134,60,74,61,74,155,108,1
22.864709615707397,126,130,54,56,46,56,146,105,1
22.878973245620728,108,122,56,56,53,64,147,94,1
22.90239930152893,110,113,54,48,48,66,149,100,1
22.924487352371216,106,106,55,48,45,65,145,93,1
22.939082145690918,106,106,53,51,45,61,132,93,1
22.96235418319702,118,109,51,53,46,59,138,96,1
22.985018014907837,109,92,48,49,39,56,135,84,1
22.999069213867188,109,93,45,52,43,58,136,89,1
23.0224666595459,122,108,53,62,51,62,142,104,1
23.04518985748291,126,104,57,62,52,61,132,110,1
23.05951738357544,116,121,61,62,54,58,124,105,1
23.082163095474243,116,129,66,68,63,58,109,103,1
23.10486078262329,109,125,71,69,63,54,106,96,1
23.119194984436035,93,115,69,64,64,55,121,82,1
23.142613649368286,80,126,67,66,64,55,148,78,1
23.164494276046753,83,115,67,67,66,62,156,80,1
23.186794757843018,85,107,62,67,65,65,162,81,1
23.202677726745605,85,109,58,67,64,64,159,72,1
23.224796295166016,94,117,55,63,59,60,143,70,1
23.239015579223633,129,105,55,65,59,68,154,90,1
23.2625093460083,125,90,49,60,52,62,144,86,1
23.28500747680664,125,89,49,51,46,54,135,86,1
23.307265996932983,122,85,51,52,48,55,133,87,1
23.3222873210907,122,84,49,53,48,56,133,96,1
23.346112728118896,88,89,44,45,44,51,87,75,1
23.367313385009766,90,94,47,46,50,52,85,76,1
23.382794618606567,90,93,43,48,49,53,99,73,1
23.405905961990356,90,88,41,50,49,51,97,73,1
23.427643299102783,81,79,38,49,46,54,111,63,1
23.442751169204712,72,85,38,49,46,47,109,59,1
23.464884757995605,61,79,34,49,42,46,108,56,1
23.4873104095459,60,93,40,48,42,42,97,57,1
23.502690076828003,62,107,40,47,42,41,97,61,1
23.525450706481934,67,105,43,47,41,32,72,56,1
23.547404527664185,73,97,44,44,37,42,88,53,1
23.56171226501465,77,98,47,56,49,52,89,57,1
23.58670139312744,76,91,45,55,47,52,86,56,1
23.606943130493164,77,79,43,52,46,53,87,52,1
23.621713399887085,72,76,44,54,48,56,100,57,1
23.64444637298584,83,79,45,57,48,49,91,67,1
23.667377471923828,84,86,41,44,34,42,98,65,1
23.689846992492676,84,79,44,52,43,46,104,71,1
23.705527305603027,81,75,46,55,42,46,104,68,1
23.727741956710815,90,84,47,57,44,44,99,72,1
23.74241352081299,83,81,48,62,53,45,102,66,1
23.76455307006836,83,78,48,66,58,45,94,67,1
23.78757619857788,83,80,45,60,51,42,90,64,1
23.80163073539734,85,85,48,63,55,42,85,65,1
23.82563018798828,74,80,46,59,51,43,75,58,1
23.847275018692017,80,85,51,55,41,44,68,59,1
23.861599683761597,77,83,48,52,36,42,74,58,1
23.884936809539795,74,78,50,51,40,41,70,55,1
23.907336950302124,72,71,46,47,37,39,69,53,1
23.921651601791382,79,73,47,52,46,41,84,58,1
23.94492745399475,65,70,44,52,50,40,83,51,1
23.974910020828247,68,77,53,61,55,46,83,64,1
23.981719255447388,67,80,52,66,58,47,82,63,1
24.004910230636597,66,79,53,65,58,46,85,65,1
24.02808380126953,70,79,51,64,54,44,72,62,1
24.041908264160156,77,70,48,62,53,47,71,68,1
24.06490135192871,80,74,42,49,46,40,66,59,1
24.087803840637207,83,83,44,46,44,41,74,60,1
24.101778030395508,82,85,42,48,44,43,75,57,1
24.125200271606445,72,80,39,45,42,43,74,56,1
24.147352695465088,66,83,41,51,45,42,82,52,1
24.16191053390503,56,68,40,55,49,48,80,49,1
24.18486976623535,50,63,37,54,46,46,73,45,1
24.207823038101196,66,63,37,57,45,44,71,52,1
24.229965448379517,71,60,41,62,48,45,71,54,1
24.245975017547607,78,63,41,62,49,44,73,57,1
24.267742395401,83,66,42,66,49,41,80,57,1
24.289928674697876,88,73,41,64,50,42,79,58,1
24.304882287979126,107,94,48,63,50,45,79,54,1
24.32754874229431,106,99,54,69,55,54,89,51,1
24.35005021095276,98,95,51,64,49,54,77,47,1
24.364914655685425,106,106,50,57,50,56,80,57,1
24.387319326400757,104,96,51,56,50,57,78,57,1
24.40985608100891,79,75,43,53,48,54,80,56,1
24.426364421844482,77,68,36,45,46,47,73,55,1
24.447157621383667,77,67,35,46,46,43,71,52,1
24.46950936317444,65,74,38,46,41,37,60,45,1
24.484801054000854,67,81,37,47,39,36,63,45,1
24.507550477981567,65,85,44,52,42,41,62,46,1
24.52987241744995,69,91,48,49,37,41,60,48,1
24.54464316368103,71,92,48,49,37,42,59,50,1
24.567956686019897,66,69,45,55,46,43,54,46,1
24.590007781982422,63,60,47,55,48,41,54,50,1
24.604506731033325,61,58,44,56,47,45,60,50,1
24.627347707748413,62,50,37,54,47,43,63,54,1
24.650044679641724,62,48,37,52,48,43,63,52,1
24.664442777633667,59,59,35,45,41,43,67,51,1
24.686996698379517,67,68,34,44,42,44,74,52,1
24.709487199783325,65,68,33,41,41,37,68,56,1
24.724338054656982,57,70,38,43,41,36,64,50,1
24.747356414794922,58,72,41,47,45,40,67,51,1
24.76990294456482,64,66,40,44,44,37,62,53,1
24.78425884246826,58,59,41,47,45,39,60,49,1
24.807788133621216,55,56,38,45,44,37,57,42,1
24.829898834228516,69,58,36,42,42,37,57,49,1
24.84392762184143,69,63,34,42,40,39,57,50,1
24.867762565612793,64,62,35,44,42,40,61,46,1
24.889869213104248,61,63,32,41,38,36,54,48,1
24.904186725616455,63,61,35,45,39,37,56,49,1
24.934889316558838,49,56,33,46,43,39,58,45,1
24.949848651885986,47,50,32,42,39,33,55,44,1
24.964165449142456,45,48,31,40,36,31,52,47,1
24.987361669540405,59,56,34,39,39,32,51,45,1
25.011050701141357,64,59,34,37,39,31,55,45,1
25.024656772613525,67,60,35,37,37,29,49,43,1
25.047670364379883,68,69,37,43,41,34,51,42,1
25.069580554962158,70,75,38,44,41,35,51,40,1
25.09166979789734,59,69,36,45,38,39,56,47,1
25.10858941078186,54,69,36,45,39,41,54,46,1
25.129166841506958,54,73,37,43,38,42,51,46,1
25.151596546173096,54,85,41,44,37,41,48,45,1
25.168813943862915,56,79,40,45,38,41,52,50,1
25.189412355422974,58,80,39,45,40,41,53,45,1
25.213791608810425,60,83,40,49,40,40,55,51,1
25.22993779182434,57,80,40,52,47,41,59,56,1
25.249150037765503,54,64,32,47,45,40,62,58,1
25.27175498008728,50,66,34,47,44,39,62,56,1
25.288542985916138,50,65,41,62,54,45,60,56,1
25.30920433998108,48,57,40,58,52,45,54,52,1
25.332043886184692,45,56,37,55,46,45,50,45,1
25.34844422340393,45,47,39,58,46,45,45,46,1
25.369184494018555,53,57,43,60,48,50,51,45,1
25.39172649383545,51,55,36,44,34,42,48,48,1
25.408486366271973,50,65,37,44,36,43,48,45,1
25.42927646636963,47,68,39,42,37,41,49,46,1
25.452260494232178,56,81,38,40,37,41,49,46,1
25.467560052871704,56,81,37,46,41,35,43,45,1
25.48934578895569,58,84,40,52,44,40,47,43,1
25.511849403381348,59,76,40,53,41,39,51,46,1
25.528831243515015,65,78,40,55,43,39,54,45,1
25.54921293258667,58,68,43,58,43,37,57,48,1
25.57273769378662,55,57,40,51,39,37,57,52,1
25.587916374206543,55,59,38,45,36,32,51,51,1
25.608763694763184,53,58,38,45,39,31,47,48,1
25.631699323654175,48,54,39,48,39,31,45,50,1
25.650862216949463,46,50,36,47,44,34,41,45,1
25.66932773590088,45,54,35,45,44,35,38,40,1
25.692179679870605,47,62,34,48,45,35,44,42,1
25.708545684814453,48,64,34,44,43,35,50,44,1
25.729546546936035,60,73,38,45,46,36,51,46,1
25.75209093093872,65,75,37,43,43,33,54,51,1
25.771135091781616,65,72,36,43,41,33,55,52,1
25.789062023162842,72,74,40,43,43,33,53,51,1
25.811957359313965,72,74,41,45,44,33,49,51,1
25.827800989151,66,76,36,39,38,30,48,48,1
25.850146532058716,65,76,37,37,34,31,48,43,1
25.871771812438965,62,77,39,43,38,36,47,45,1
25.888917207717896,50,64,33,40,35,36,46,43,1
25.909215688705444,53,76,38,49,40,37,52,46,1
25.931665897369385,52,66,37,53,42,36,52,46,1
25.949159145355225,52,66,36,53,42,40,52,44,1
25.97156071662903,53,64,37,52,41,39,56,41,1
25.99154806137085,55,67,38,55,43,41,61,44,1
26.008611917495728,51,52,35,50,40,40,64,42,1
26.029467344284058,57,51,34,46,46,42,67,44,1
26.051701068878174,56,62,35,46,46,38,70,47,1
26.06848978996277,59,62,32,42,46,36,65,49,1
26.08920383453369,67,71,36,49,51,33,60,46,1
26.112311124801636,67,71,34,46,48,32,50,44,1
26.134260416030884,67,86,39,51,42,31,47,43,1
26.14925503730774,67,82,40,55,47,33,43,41,1
26.173467874526978,66,88,43,57,48,34,50,39,1
26.19466209411621,68,80,43,52,46,35,52,46,1
26.20915198326111,70,82,44,53,46,37,53,47,1
26.239154815673828,62,65,45,58,54,41,53,49,1
26.254156351089478,64,64,44,54,51,41,53,51,1
26.26935648918152,62,57,42,53,50,39,45,48,1
26.291741132736206,69,72,41,52,47,44,52,45,1
26.314207077026367,67,71,46,67,59,50,57,44,1
26.329302549362183,68,69,44,61,50,46,58,44,1
26.351991415023804,68,68,45,65,49,49,66,50,1
26.37415885925293,68,66,45,66,58,100,99,51,1
26.39907741546631,47,46,41,65,58,99,99,49,1
26.41191530227661,47,48,36,46,45,100,98,51,1
26.434226989746094,43,50,33,49,47,101,100,49,1
26.449187517166138,38,49,34,44,48,101,94,42,1
26.47166657447815,36,49,36,47,41,91,69,41,1
26.494571685791016,40,48,37,45,39,95,63,41,1
26.509096384048462,48,46,37,47,39,94,70,42,1
26.53129482269287,47,44,35,43,36,94,64,42,1
26.55366325378418,48,42,36,48,41,94,66,40,1
26.5690975189209,47,39,32,42,37,58,55,39,1
26.592023611068726,43,39,31,43,36,47,52,38,1
26.614352703094482,34,31,31,42,37,41,39,35,1
26.629149198532104,35,28,31,40,37,40,38,33,1
26.651965379714966,35,30,27,37,32,34,39,35,1
26.674350023269653,36,33,31,41,33,33,42,36,1
26.691065311431885,35,35,32,43,34,32,45,37,1
26.7118558883667,33,37,34,45,33,31,43,36,1
26.734255075454712,34,41,37,53,40,30,44,44,1
26.749358654022217,29,37,37,50,38,30,43,41,1
26.77167773246765,27,33,34,48,38,27,41,40,1
26.79374408721924,31,32,34,49,39,29,40,41,1
26.809383153915405,30,33,30,48,39,31,41,41,1
26.83217215538025,33,31,28,42,39,30,38,33,1
26.854148149490356,33,33,30,41,39,34,36,33,1
26.86869168281555,32,33,31,43,40,36,37,33,1
26.891671895980835,31,32,31,40,41,36,36,27,1
26.91427707672119,32,29,34,45,44,36,36,27,1
26.931905269622803,31,27,33,45,42,36,35,25,1
26.95117974281311,31,26,32,45,45,33,34,26,1
26.974220037460327,31,26,34,46,45,29,32,26,1
26.99106454849243,30,30,36,49,45,27,34,26,1
27.011737823486328,30,31,36,47,42,30,36,30,1
27.034343719482422,28,33,38,45,41,30,38,29,1
27.05305314064026,32,34,37,49,38,32,38,34,1
27.07189679145813,35,39,37,50,42,33,39,34,1
27.095825910568237,34,39,36,48,41,77,63,36,1
27.116779327392578,41,49,36,45,43,87,70,36,1
27.132009744644165,41,52,34,46,43,94,73,37,1
27.154290199279785,40,53,33,45,42,97,79,33,1
27.17675471305847,39,50,32,43,38,99,81,34,1
27.191823720932007,38,48,31,44,36,88,76,36,1
27.214678049087524,32,40,29,49,45,84,73,34,1
27.236679792404175,32,34,33,51,46,76,75,39,1
27.251667022705078,31,34,33,50,47,78,69,39,1
27.27418303489685,31,36,33,54,50,77,66,39,1
27.29672145843506,31,36,35,55,53,57,50,39,1
27.311940908432007,34,37,35,53,48,51,48,39,1
27.33446741104126,32,38,32,48,45,50,37,36,1
27.35668706893921,31,38,34,49,46,42,39,36,1
27.371877908706665,31,36,34,47,40,39,37,33,1
27.394185066223145,33,35,34,45,37,36,38,31,1
27.416985273361206,29,31,30,41,30,34,32,29,1
27.431678295135498,32,30,32,43,32,34,38,31,1
27.454197883605957,33,25,28,39,27,31,33,31,1
27.47681975364685,35,26,28,39,32,30,35,34,1
27.49185037612915,34,24,25,37,31,29,34,34,1
27.514384984970093,35,26,26,38,37,28,38,33,1
27.536816358566284,33,27,28,44,41,29,37,30,1
27.551985263824463,39,30,34,54,48,32,40,31,1
27.574337005615234,38,28,34,55,52,37,42,33,1
27.597899913787842,37,29,36,56,53,39,41,35,1
27.611754655838013,37,29,37,58,52,44,39,35,1
27.63417625427246,37,28,35,56,49,44,36,36,1
27.65684413909912,31,26,30,45,43,42,35,35,1
27.672276258468628,31,28,30,39,35,38,31,34,1
27.694480895996094,32,28,29,39,35,34,37,32,1
27.716771125793457,35,32,29,38,33,29,40,37,1
27.731855630874634,33,32,31,39,33,28,40,38,1
27.755423307418823,32,34,35,49,37,34,45,40,1
27.778689861297607,32,34,33,50,37,33,45,37,1
27.798690795898438,30,35,33,54,39,37,43,37,1
27.814513683319092,29,29,33,51,38,38,38,32,1
27.836894750595093,29,29,32,49,38,41,41,34,1
27.851763010025024,29,29,29,45,39,40,36,31,1
27.87376618385315,30,27,29,45,40,40,35,34,1
27.897016525268555,30,26,29,39,38,39,36,33,1
27.91234827041626,29,33,32,46,43,39,38,35,1
27.93426251411438,27,34,31,46,44,36,35,32,1
27.956735372543335,25,34,32,46,43,36,35,32,1
27.97212266921997,25,37,36,56,46,42,40,30,1
27.99418020248413,24,37,41,59,47,40,38,32,1
28.016578674316406,26,35,44,58,44,40,36,31,1
28.039686918258667,29,34,48,63,50,43,38,30,1
28.05410385131836,29,34,49,62,53,40,39,32,1
28.0768404006958,30,35,51,56,55,36,38,34,1
28.100718021392822,32,36,51,62,61,37,41,33,1
28.11432409286499,32,33,47,59,58,37,41,32,1
28.136842966079712,35,35,44,55,52,31,39,32,1
28.15925145149231,36,37,45,57,49,31,38,31,1
28.17434525489807,36,36,40,58,46,28,35,29,1
28.196758270263672,35,39,40,54,44,28,35,29,1
28.21959924697876,35,40,41,55,47,27,35,29,1
28.2338809967041,31,41,40,58,51,30,36,30,1
28.25618624687195,33,37,37,54,52,30,35,30,1
28.279389142990112,36,39,37,55,54,33,38,30,1
28.294272899627686,34,34,32,51,51,33,35,31,1
28.31674361228943,34,33,30,50,50,33,36,34,1
28.339426517486572,35,34,33,50,49,34,36,35,1
28.354301691055298,36,34,35,48,47,35,38,36,1
28.376748085021973,31,31,32,41,40,33,35,37,1
28.399269819259644,34,29,31,38,37,30,35,36,1
28.414366960525513,33,35,35,42,37,33,36,32,1
28.436612367630005,31,30,28,34,34,32,35,32,1
28.459229469299316,28,30,26,34,34,32,34,32,1
28.47421145439148,30,30,28,37,35,35,37,30,1
28.496949911117554,28,35,32,42,36,38,36,30,1
28.519227504730225,29,28,27,36,35,35,33,33,1
28.53423810005188,32,30,31,46,37,34,38,29,1
28.556960582733154,32,31,32,49,44,36,40,28,1
28.579891681671143,32,31,30,48,49,35,41,25,1
28.594594717025757,30,27,28,46,47,32,41,24,1
28.61674404144287,31,28,29,48,50,34,40,22,1
28.639177560806274,29,28,28,42,51,34,37,24,1
28.654160499572754,30,28,28,39,45,32,34,27,1
28.67694067955017,31,28,32,39,42,32,27,30,1
28.699309587478638,32,28,32,41,44,39,30,31,1
28.714442491531372,31,29,33,45,42,39,31,32,1
28.7368106842041,32,37,44,65,50,45,38,31,1
28.759541034698486,35,39,45,72,57,45,40,29,1
28.77426528930664,34,39,43,70,54,44,40,28,1
28.797041177749634,34,40,42,71,55,41,40,28,1
28.8192036151886,36,42,47,74,60,45,40,25,1
28.834232807159424,37,33,38,60,59,42,33,26,1
28.856717348098755,35,36,37,57,57,45,30,27,1
28.879427671432495,37,36,37,58,59,48,33,28,1
28.89412546157837,37,34,37,56,58,47,37,34,1
28.916979551315308,36,34,29,48,51,42,37,36,1
28.939900875091553,36,39,30,50,45,46,42,36,1
28.970448970794678,36,39,35,56,48,45,45,35,1
28.97676134109497,35,38,35,60,54,41,44,34,1
28.999767780303955,36,39,40,64,55,41,44,27,1
30.96504497528076,30,27,27,30,35,33,27,29,2
30.987738370895386,29,26,28,33,30,31,30,26,2
31.00180435180664,29,25,28,32,30,33,30,28,2
31.02507710456848,29,26,25,30,26,30,30,32,2
31.04730725288391,26,28,28,33,30,32,32,33,2
31.061466932296753,25,27,25,31,32,30,32,33,2
31.084380626678467,32,27,27,31,33,29,31,34,2
31.107530117034912,33,28,28,30,34,26,31,31,2
31.121899127960205,36,30,32,35,36,30,34,28,2
31.14461088180542,38,29,31,36,36,27,33,28,2
31.167617797851562,38,31,30,35,35,29,42,31,2
31.181874990463257,34,28,27,32,31,31,42,32,2
31.20503067970276,36,27,28,34,33,34,43,35,2
31.22800374031067,31,25,24,30,30,51,50,34,2
31.241875410079956,31,23,22,27,30,57,55,34,2
31.26545262336731,31,26,22,31,29,56,50,31,2
31.28759002685547,31,27,22,31,31,56,51,30,2
31.30183744430542,31,26,23,31,28,57,53,27,2
31.325010061264038,31,27,25,32,31,40,49,29,2
31.347554206848145,31,29,26,31,29,34,46,28,2
31.36181902885437,35,27,28,32,30,51,59,30,2
31.38532042503357,36,26,29,35,32,51,58,30,2
31.407169103622437,37,29,28,32,36,51,62,33,2
31.421471118927002,37,28,27,33,34,52,59,32,2
31.44459319114685,35,27,28,35,35,52,58,32,2
31.46789836883545,32,30,31,41,37,40,45,31,2
31.481995820999146,32,31,30,40,37,38,45,29,2
31.505058526992798,28,29,31,40,34,35,34,32,2
31.52784824371338,27,29,31,40,34,68,62,34,2
31.54204797744751,29,31,34,42,38,74,69,35,2
31.56448745727539,27,25,29,31,35,72,68,36,2
31.59540867805481,28,31,36,43,37,76,72,38,2
31.60184907913208,30,31,35,44,37,76,74,34,2
31.624637603759766,33,31,34,42,37,71,71,34,2
31.64754867553711,31,30,31,39,32,67,69,32,2
31.669896841049194,31,32,31,39,30,66,68,30,2
31.68436884880066,31,28,24,25,26,62,65,28,2
31.707785606384277,32,30,25,26,26,73,76,27,2
31.721502780914307,31,33,26,35,35,57,64,27,2
31.744400024414062,33,33,25,35,34,56,62,27,2
31.76747989654541,33,30,26,36,35,56,61,31,2
31.790106296539307,31,32,30,37,35,56,62,33,2
31.804367065429688,31,30,28,38,36,41,45,35,2
31.827643156051636,30,27,28,30,29,32,38,34,2
31.851390600204468,28,27,30,33,30,29,35,35,2
31.86395287513733,30,33,34,44,33,34,38,32,2
31.887653589248657,29,30,30,42,33,61,53,29,2
31.91056537628174,33,30,31,39,32,62,54,28,2
31.92474341392517,34,31,31,40,31,63,54,29,2
31.947731971740723,36,30,29,38,30,68,61,29,2
31.970772743225098,33,24,23,25,29,65,62,29,2
31.984358072280884,32,24,24,25,26,54,59,30,2
32.0075044631958,26,24,24,27,25,56,59,30,2
32.03014349937439,23,24,22,27,28,57,60,30,2
32.04448890686035,25,25,22,28,33,57,54,31,2
32.06802701950073,26,27,22,26,31,57,53,31,2
32.09015989303589,29,28,22,32,33,48,46,30,2
32.10440278053284,29,29,23,30,33,43,43,30,2
32.127663373947144,29,28,25,30,31,39,42,29,2
32.15032625198364,26,28,25,30,25,53,54,30,2
32.1645929813385,28,26,27,31,29,57,53,32,2
32.187554359436035,28,27,29,30,29,55,51,35,2
32.21007990837097,28,25,28,30,30,55,52,34,2
32.224281549453735,32,24,31,33,30,55,58,35,2
32.2477593421936,33,23,30,34,30,35,46,34,2
32.270108699798584,35,26,28,36,27,32,41,35,2
32.28455400466919,34,23,26,33,26,32,42,34,2
32.30760955810547,36,26,28,35,27,35,43,34,2
32.33056449890137,35,29,25,33,30,37,37,33,2
32.34441781044006,34,31,28,31,31,57,52,33,2
32.367594480514526,32,29,28,27,31,56,53,30,2
32.39004039764404,30,29,30,32,32,59,56,29,2
32.40444493293762,30,27,27,29,32,59,58,29,2
32.42758893966675,30,26,31,34,30,59,63,28,2
32.449520111083984,33,26,33,37,31,40,51,28,2
32.46472477912903,34,25,32,37,31,58,59,29,2
32.48732924461365,33,28,30,35,30,71,69,34,2
32.50975179672241,35,27,29,37,30,70,66,40,2
32.52387595176697,33,26,28,34,29,69,59,40,2
32.54789090156555,32,28,25,32,31,69,62,40,2
32.570178747177124,32,30,28,33,30,54,53,40,2
32.58440089225769,34,30,29,37,30,43,35,35,2
32.60784149169922,32,31,30,36,29,42,34,29,2
32.63127660751343,34,30,28,33,26,41,33,31,2
32.64447236061096,33,29,30,34,22,41,32,32,2
32.66763377189636,35,27,27,33,24,42,32,35,2
32.69014310836792,35,26,27,26,24,30,31,36,2
32.704773902893066,33,24,25,27,24,33,40,35,2
32.72808599472046,32,23,26,27,25,35,41,36,2
32.75019359588623,31,22,25,27,24,33,39,37,2
32.77274441719055,27,22,27,28,23,33,40,34,2
32.78752064704895,29,22,28,28,24,33,39,36,2
32.81009340286255,31,22,29,26,23,29,32,35,2
32.83277750015259,33,25,29,29,27,27,34,32,2
32.84737491607666,34,25,28,28,28,26,33,28,2
32.870102882385254,38,30,29,31,29,39,48,33,2
32.892566204071045,36,29,27,32,26,40,49,30,2
32.90752625465393,35,30,28,33,31,41,49,32,2
32.93013620376587,33,30,29,33,30,42,47,31,2
32.952181577682495,33,29,27,33,29,42,49,33,2
32.96725106239319,31,23,28,35,31,34,34,29,2
32.99008584022522,33,25,28,34,31,32,40,31,2
33.01460814476013,31,25,26,33,28,31,38,31,2
33.02753448486328,33,23,27,30,27,30,38,31,2
33.049980878829956,35,23,28,30,28,33,36,34,2
33.07311797142029,35,25,23,27,27,60,62,34,2
33.0878381729126,35,26,25,26,27,64,68,34,2
33.110217571258545,35,27,26,25,27,66,70,34,2
33.13307547569275,35,30,26,26,25,69,71,35,2
33.14701271057129,36,31,28,27,25,71,74,33,2
33.17046403884888,35,29,29,26,23,51,55,32,2
33.19255256652832,31,28,29,26,24,46,41,31,2
33.20676922798157,36,27,28,29,26,43,38,29,2
33.23020958900452,33,24,26,29,27,53,42,29,2
33.25262808799744,32,24,29,30,26,59,46,27,2
33.26745653152466,34,24,28,29,27,58,49,29,2
33.29009556770325,36,25,28,29,26,58,48,28,2
33.31267952919006,34,25,31,29,28,60,51,31,2
33.32742166519165,33,25,29,28,26,47,47,30,2
33.350229263305664,40,26,26,26,28,62,59,36,2
33.37305021286011,40,25,27,26,27,63,58,34,2
33.38685846328735,41,25,28,33,29,64,60,35,2
33.410627365112305,39,24,26,31,27,64,58,37,2
33.432658195495605,40,23,28,33,29,67,62,39,2
33.44726777076721,31,22,29,32,29,41,43,33,2
33.47026491165161,31,23,29,33,31,39,38,32,2
33.49261212348938,27,20,27,31,29,36,35,33,2
33.50693917274475,27,24,27,32,29,35,33,31,2
33.53032636642456,28,24,29,32,27,28,31,27,2
33.55271863937378,28,24,31,33,27,29,34,29,2
33.56688332557678,32,23,34,34,31,47,45,32,2
33.590330839157104,32,24,35,34,33,66,54,31,2
33.6127769947052,31,20,34,32,34,70,53,30,2
33.62736248970032,32,22,34,32,34,72,57,33,2
33.65008854866028,31,26,33,36,34,74,58,32,2
33.673076152801514,30,27,30,34,31,64,51,32,2
33.68695068359375,30,27,28,34,31,47,45,34,2
33.71061825752258,31,29,29,34,28,41,47,34,2
33.732619762420654,31,28,28,31,28,38,40,34,2
33.75458312034607,32,24,24,27,27,34,35,33,2
33.77019715309143,30,25,26,29,25,43,41,32,2
33.792630434036255,32,25,28,26,25,61,52,31,2
33.815173864364624,32,26,29,28,30,67,53,27,2
33.83035445213318,31,28,27,29,29,67,52,26,2
33.852575063705444,31,30,28,30,28,69,53,30,2
33.87485480308533,31,30,25,28,30,63,48,32,2
33.88978290557861,32,29,26,27,34,68,48,31,2
33.9131383895874,33,28,25,29,34,66,49,36,2
33.93509292602539,33,26,25,33,34,66,49,34,2
33.94991087913513,32,24,25,31,35,65,48,32,2
33.972177028656006,32,27,26,32,35,65,50,30,2
33.995527267456055,29,25,24,34,32,42,43,30,2
34.0100736618042,32,23,24,30,29,35,40,26,2
34.03268575668335,32,23,24,25,30,35,39,30,2
34.05512523651123,33,26,26,29,31,34,40,31,2
34.06953263282776,32,23,25,28,29,30,35,31,2
34.09300875663757,32,25,28,32,32,31,32,29,2
34.11513352394104,29,27,30,35,29,32,31,30,2
34.129419803619385,30,31,30,37,29,32,34,33,2
34.15259003639221,31,27,31,34,28,38,43,32,2
34.17506694793701,28,29,33,36,29,65,61,32,2
34.18939161300659,29,28,31,32,27,67,66,34,2
34.2132511138916,30,27,30,30,30,67,67,36,2
34.235496282577515,29,22,29,27,30,68,66,31,2
34.24933576583862,31,22,27,27,29,64,60,29,2
34.27261185646057,31,20,29,27,28,41,43,27,2
34.29545855522156,33,24,29,27,27,34,41,26,2
34.3097767829895,32,28,28,25,25,36,40,26,2
34.333009004592896,33,30,29,27,30,35,41,29,2
34.3551070690155,30,30,28,27,31,34,42,35,2
34.36938714981079,36,32,25,31,30,32,42,36,2
34.39292883872986,39,30,24,32,31,34,42,41,2
34.41515493392944,38,27,26,33,29,30,40,43,2
34.429439067840576,38,27,25,34,24,30,41,41,2
34.45262050628662,38,30,28,38,25,33,40,37,2
34.47510743141174,33,28,29,31,28,33,38,38,2
34.4893741607666,28,26,29,29,26,32,34,34,2
34.51263618469238,28,24,28,29,27,33,37,32,2
34.53543567657471,28,29,28,34,30,38,39,33,2
34.54975628852844,34,29,27,29,28,35,42,31,2
34.57260847091675,36,29,27,31,24,35,47,29,2
34.59525966644287,36,33,27,34,28,33,49,34,2
34.60978436470032,36,35,27,35,29,33,46,32,2
34.63280653953552,36,32,26,34,26,26,46,33,2
34.65444755554199,32,29,24,37,27,28,44,33,2
34.676979303359985,32,30,24,36,27,28,46,34,2
34.693713665008545,31,27,26,38,24,32,46,30,2
34.7153160572052,31,25,27,39,30,30,48,28,2
34.73687529563904,29,23,28,36,33,33,46,30,2
34.75401163101196,27,22,28,35,33,32,46,31,2
34.776389360427856,30,23,28,36,34,33,44,30,2
34.79692625999451,32,22,25,34,34,30,41,30,2
34.81383419036865,31,23,27,33,29,30,42,32,2
34.84148836135864,34,25,27,31,27,28,42,28,2
34.85700869560242,37,25,27,29,28,27,42,28,2
34.87576150894165,33,24,28,32,31,28,38,30,2
34.89442253112793,30,25,28,32,38,29,33,30,2
34.91701292991638,35,22,25,31,38,31,34,27,2
34.933934926986694,30,21,25,32,39,33,31,29,2
34.95528841018677,28,24,26,36,39,33,35,31,2
34.97702145576477,31,22,25,33,35,30,34,30,2
34.994385957717896,31,22,26,30,32,33,40,30,2
35.01464319229126,30,25,27,32,32,32,39,30,2
35.0368709564209,32,25,26,32,31,30,39,29,2
35.05384111404419,35,24,26,27,31,30,35,28,2
35.07505965232849,33,25,26,26,32,31,36,27,2
35.09676480293274,34,24,24,27,26,26,28,26,2
35.11373472213745,33,24,24,26,29,32,33,29,2
35.1343789100647,34,25,27,22,28,31,35,30,2
35.15747547149658,35,24,27,26,29,34,37,28,2
35.173601150512695,36,24,26,29,30,34,36,28,2
35.194416522979736,37,24,28,34,32,35,39,29,2
35.21695065498352,35,23,29,34,29,33,35,29,2
35.234432220458984,36,23,24,36,29,38,38,29,2
35.254692792892456,33,22,24,33,26,38,38,29,2
35.278849363327026,33,21,27,34,25,38,39,28,2
35.29427886009216,32,23,26,32,25,37,39,29,2
35.31433868408203,36,22,30,31,26,35,36,26,2
35.3370304107666,35,25,33,30,29,36,36,27,2
35.35456705093384,36,26,32,31,30,35,36,28,2
35.37395668029785,34,27,33,35,32,36,36,30,2
35.397741079330444,36,26,34,32,31,36,39,29,2
35.41470789909363,34,26,29,31,30,38,40,29,2
35.434471130371094,32,24,28,34,26,32,35,28,2
35.45692563056946,31,27,31,37,28,31,36,29,2
35.47379183769226,33,30,30,37,29,32,36,28,2
35.4943323135376,32,32,30,36,27,35,32,30,2
35.516998291015625,32,33,30,37,29,33,36,29,2
35.53387904167175,33,32,29,35,31,32,35,30,2
35.557395458221436,32,30,27,32,29,32,34,27,2
35.57683205604553,30,30,25,26,26,30,35,27,2
35.59614062309265,30,27,22,25,27,26,34,26,2
35.6148955821991,29,25,22,25,26,28,34,28,2
35.63697123527527,27,28,25,32,26,33,34,27,2
35.65985321998596,31,31,28,36,29,34,36,34,2
35.67429757118225,31,26,29,38,30,33,38,35,2
35.696977615356445,35,28,28,39,30,38,38,37,2
35.719531297683716,35,29,29,42,36,42,39,36,2
35.734697103500366,36,27,26,35,34,39,38,37,2
35.756993532180786,33,23,24,31,30,37,37,35,2
35.77945280075073,33,26,25,37,37,40,35,37,2
35.794426679611206,28,27,26,39,40,38,36,35,2
35.81720566749573,32,26,26,37,35,31,33,36,2
35.83943557739258,33,25,27,38,37,33,34,37,2
35.85497522354126,33,27,27,40,39,34,36,36,2
35.87652015686035,37,31,28,35,34,32,37,34,2
35.899667739868164,38,30,29,34,31,31,39,35,2
35.9143762588501,35,31,29,31,31,33,39,34,2
35.93689680099487,33,33,32,34,31,34,40,33,2
35.95932412147522,34,37,35,38,29,33,36,33,2
35.9746732711792,31,33,34,37,28,35,40,32,2
35.99702334403992,33,33,35,36,26,30,40,31,2
36.019959688186646,33,33,34,37,26,30,40,30,2
36.03553533554077,35,34,32,36,25,28,39,31,2
36.05739116668701,36,30,33,29,25,31,42,30,2
36.07939529418945,31,32,33,31,24,27,36,33,2
36.09624981880188,34,31,32,32,27,30,36,33,2
36.11745071411133,36,30,34,32,27,29,41,34,2
36.139578342437744,34,26,34,31,27,33,44,34,2
36.156779527664185,33,25,32,31,30,34,45,36,2
36.177021503448486,35,26,30,29,30,37,45,34,2
36.19897389411926,32,27,29,27,28,36,42,34,2
36.21686029434204,34,27,29,26,28,38,40,33,2
36.236902713775635,36,27,28,26,30,33,38,32,2
36.25941061973572,36,25,24,26,27,30,34,30,2
36.27631688117981,35,23,26,27,26,27,34,28,2
36.29687023162842,32,21,28,30,24,29,35,31,2
36.31938982009888,31,22,28,33,22,33,35,32,2
36.337119579315186,29,22,27,32,19,35,33,31,2
36.357089042663574,33,25,29,34,21,36,34,32,2
36.379424810409546,33,24,29,34,30,41,36,31,2
36.3986701965332,36,24,26,31,30,38,39,32,2
36.41700601577759,35,24,25,31,32,36,39,32,2
36.439443826675415,34,24,25,31,34,34,41,34,2
36.456416845321655,31,23,27,30,34,38,42,35,2
36.47695183753967,32,26,25,29,27,36,45,36,2
36.499603509902954,30,26,28,30,28,41,41,32,2
36.51636242866516,32,26,29,29,27,40,37,31,2
36.53706884384155,36,27,31,32,28,42,38,30,2
36.55969786643982,36,26,31,30,28,41,51,29,2
36.58302330970764,34,23,29,28,30,40,49,29,2
36.596577644348145,33,21,28,29,32,37,48,31,2
36.61980605125427,32,21,28,28,31,36,50,32,2
36.64189147949219,31,18,28,30,29,40,53,32,2
36.65696310997009,30,17,26,30,26,35,43,33,2
36.67998147010803,34,20,26,30,23,33,43,33,2
36.70222783088684,33,23,25,32,24,32,44,31,2
36.71705746650696,33,27,23,32,26,32,44,29,2
36.73950386047363,30,30,22,32,30,32,38,31,2
36.76203727722168,30,30,23,33,33,32,37,28,2
36.777323484420776,28,31,25,34,35,33,34,28,2
36.79976272583008,29,30,24,33,36,34,33,29,2
36.82205367088318,36,29,28,41,37,35,34,29,2
36.83695197105408,39,30,31,41,33,32,36,27,2
36.86731171607971,42,31,31,42,33,36,40,29,2
36.88165211677551,43,31,29,43,32,36,41,29,2
36.89660096168518,45,31,32,44,30,37,41,29,2
36.91958427429199,42,33,30,37,29,35,40,30,2
36.94311261177063,39,33,28,34,33,34,38,30,2
36.95708608627319,40,32,28,33,32,30,35,30,2
36.97948479652405,40,31,27,32,31,30,33,29,2
37.00237441062927,39,31,26,32,30,27,33,29,2
37.017168283462524,36,30,26,34,32,27,34,32,2
37.03959608078003,37,27,25,37,29,26,37,35,2
37.062137842178345,34,29,24,36,28,26,36,36,2
37.07738018035889,33,29,24,34,27,27,38,35,2
37.100051164627075,32,28,23,33,29,28,37,38,2
37.12202548980713,32,25,22,28,26,27,34,35,2
37.136959075927734,32,26,23,29,24,27,30,33,2
37.15976691246033,30,23,23,27,28,28,30,31,2
37.18203377723694,32,22,25,31,32,28,32,34,2
37.19703936576843,32,23,25,28,31,28,33,31,2
37.22133731842041,30,22,24,29,32,30,32,31,2
37.2424054145813,33,22,24,28,33,32,41,31,2
37.25697612762451,33,24,26,31,31,33,43,32,2
37.279491662979126,34,24,26,28,30,31,41,30,2
37.30224633216858,33,25,29,31,33,33,41,27,2
37.31727933883667,35,26,30,32,32,32,42,24,2
37.33985090255737,34,27,30,33,32,35,44,26,2
37.361841440200806,35,25,29,31,33,34,42,25,2
37.37691378593445,32,28,31,39,34,35,46,26,2
37.39990830421448,32,28,29,39,32,33,46,28,2
37.422041177749634,35,30,31,40,31,35,47,31,2
37.437063455581665,34,30,32,40,29,33,38,29,2
37.459659576416016,33,30,31,40,27,34,36,31,2
37.482160329818726,33,31,28,34,23,33,30,30,2
37.49734115600586,34,30,28,32,22,33,34,30,2
37.519622802734375,30,28,24,29,23,33,34,29,2
37.542320728302,30,27,23,31,23,32,35,30,2
37.572839975357056,31,27,25,31,24,33,37,28,2
37.579535484313965,29,27,28,33,27,34,41,29,2
37.602412939071655,27,31,31,37,29,38,40,30,2
37.62463855743408,30,30,31,39,31,38,41,29,2
37.640031576156616,30,30,32,39,32,37,39,31,2
37.66203451156616,31,29,30,38,34,36,38,32,2
37.68467402458191,35,28,28,36,33,34,34,32,2
37.700284004211426,36,24,27,38,32,30,33,32,2
37.72198438644409,33,25,26,36,29,28,32,31,2
37.74599599838257,31,24,25,33,29,27,31,30,2
37.75940489768982,29,25,27,35,28,28,40,27,2
37.78226041793823,26,25,28,33,28,30,40,29,2
37.80454230308533,28,22,28,26,26,30,38,28,2
37.81950616836548,28,21,27,26,27,29,42,30,2
37.84219670295715,32,25,27,30,27,37,47,32,2
37.86483812332153,33,26,28,31,27,36,39,32,2
37.87951874732971,33,26,26,34,27,37,43,31,2
37.901771068573,36,26,24,35,28,39,43,30,2
37.92496085166931,37,31,27,40,28,44,43,28,2
37.93984031677246,35,31,29,42,32,36,43,28,2
37.961994647979736,35,30,29,41,33,36,44,29,2
37.984885454177856,34,30,30,39,32,34,39,28,2
37.999452114105225,30,31,29,38,30,34,47,29,2
38.02147459983826,29,29,27,37,31,29,46,30,2
38.05288338661194,31,25,24,33,26,30,41,29,2
38.059561014175415,28,27,28,34,23,29,40,28,2
38.08242583274841,27,27,30,34,24,31,40,29,2
38.104593992233276,24,26,32,37,24,30,32,26,2
38.119601249694824,25,24,33,32,22,29,31,28,2
38.14199757575989,22,27,32,34,27,30,30,29,2
38.17270755767822,26,28,30,37,28,31,31,31,2
38.179455041885376,28,28,26,38,31,31,30,33,2
38.20238757133484,30,28,26,35,31,32,28,33,2
38.22456741333008,35,31,30,40,35,39,31,33,2
38.239593744277954,37,30,31,37,31,44,38,33,2
38.26193642616272,36,27,29,33,31,44,40,33,2
38.284831523895264,35,28,30,32,31,44,42,31,2
38.299484729766846,35,27,28,34,32,42,42,33,2
38.32367205619812,32,23,24,29,30,37,39,36,2
38.34456443786621,31,22,24,31,30,32,37,35,2
38.359456300735474,33,23,24,30,32,34,35,38,2
38.381858348846436,33,20,25,28,30,32,37,38,2
38.40447807312012,33,22,27,26,29,31,38,38,2
38.41946339607239,34,23,28,26,28,33,37,33,2
38.44203543663025,33,24,27,23,28,39,36,33,2
38.464789152145386,29,26,29,27,29,40,38,31,2
38.486644983291626,28,28,29,27,27,41,36,30,2
38.50170660018921,28,28,29,29,28,41,34,28,2
38.5246205329895,27,27,29,29,26,41,34,28,2
38.54719662666321,28,30,31,31,28,37,44,30,2
38.56200933456421,33,27,28,29,24,37,45,27,2
38.58458638191223,32,25,28,33,28,40,46,29,2
38.6069974899292,34,25,27,34,26,40,49,29,2
38.62210392951965,33,26,23,33,27,37,50,32,2
38.64502000808716,35,27,25,37,30,37,45,32,2
38.66787791252136,31,28,24,36,30,34,44,31,2
38.68242144584656,33,31,27,36,31,31,43,30,2
38.70555377006531,33,31,28,32,32,31,46,33,2
38.727054595947266,32,31,31,33,31,34,45,30,2
38.74216914176941,30,27,29,27,29,34,42,29,2
38.764641523361206,30,26,30,29,31,35,40,30,2
38.78721857070923,30,22,29,29,33,37,39,31,2
38.80204248428345,28,24,28,30,32,35,33,28,2
38.824453830718994,29,23,26,30,33,34,43,28,2
38.8470721244812,30,24,27,30,36,33,43,31,2
38.86321568489075,30,26,26,33,37,34,43,33,2
38.88469839096069,32,25,25,32,36,31,42,31,2
38.90752863883972,32,23,25,33,36,33,45,32,2
38.92206311225891,33,27,29,35,40,42,48,33,2
38.944875717163086,36,26,28,35,37,38,45,28,2
38.96674942970276,35,26,28,33,34,36,45,27,2
38.98166847229004,33,25,28,29,34,37,48,28,2
39.00491666793823,37,26,33,33,36,37,45,29,2
39.0270414352417,36,24,28,30,30,30,36,27,2
39.04201102256775,33,26,28,30,30,32,37,27,2
39.06471538543701,33,26,27,29,31,31,37,27,2
39.08789372444153,32,31,33,39,32,35,37,28,2
39.102076292037964,28,30,28,37,32,35,39,26,2
39.124568939208984,28,28,28,36,32,32,39,29,2
39.147449016571045,29,29,28,36,33,32,40,30,2
39.16200637817383,31,29,31,37,31,33,40,29,2
39.18458342552185,34,26,24,27,28,29,38,29,2
39.20775270462036,36,25,24,25,28,29,38,32,2
39.22196865081787,35,26,23,24,25,30,33,30,2
39.24452614784241,34,25,23,27,26,29,32,31,2
39.26696586608887,34,26,21,29,27,28,30,31,2
39.282567501068115,33,24,26,29,24,29,28,32,2
39.3048255443573,35,25,27,31,25,31,38,32,2
39.3276207447052,35,26,27,33,27,27,37,34,2
39.34204840660095,36,26,27,31,27,27,36,35,2
39.36620783805847,33,26,27,30,28,32,38,36,2
39.387266874313354,31,29,25,36,33,35,40,34,2
39.40338635444641,29,27,24,35,30,34,32,33,2
39.42458701133728,31,27,24,36,32,38,33,31,2
39.44731402397156,29,25,25,35,32,39,36,29,2
39.470606327056885,31,24,27,35,31,37,36,28,2
39.484686613082886,35,21,25,28,27,36,32,29,2
39.50704860687256,32,20,25,33,25,38,33,32,2
39.53064155578613,32,24,28,37,24,38,35,32,2
39.544546604156494,33,24,26,37,25,38,33,31,2
39.56717920303345,33,23,23,38,23,37,33,30,2
39.5902464389801,30,24,25,38,25,35,36,32,2
39.606605768203735,31,30,29,41,30,40,39,27,2
39.62698459625244,28,27,26,39,31,37,36,28,2
39.65041446685791,29,30,28,38,30,38,35,33,2
39.66443395614624,27,30,27,36,31,39,34,36,2
39.687039613723755,27,32,29,38,32,40,38,33,2
39.71045970916748,28,29,28,35,29,37,35,35,2
39.72474002838135,29,29,30,32,28,36,37,36,2
39.74709486961365,29,25,29,31,29,33,37,32,2
39.770272970199585,30,26,32,34,28,35,38,30,2
39.7849862575531,29,28,32,38,33,35,36,30,2
39.80703806877136,28,25,29,33,33,33,34,29,2
39.830381631851196,28,25,28,34,34,33,32,27,2
39.844972133636475,26,28,28,35,33,34,33,29,2
39.86735653877258,26,28,28,35,36,33,36,31,2
39.89030742645264,27,26,28,27,30,32,32,29,2
39.90470838546753,26,26,27,28,31,34,37,30,2
39.927035093307495,26,27,28,35,36,38,45,31,2
39.95058274269104,25,28,28,37,37,42,46,30,2
39.965134143829346,30,26,26,36,33,39,44,30,2
39.98705577850342,30,26,27,36,33,39,43,30,2
40.01030731201172,32,27,28,37,34,37,44,27,2
40.02479553222656,34,27,28,32,27,35,37,27,2
40.047038555145264,40,26,28,30,24,31,39,25,2
40.070239543914795,36,27,28,30,28,32,40,25,2
40.08494186401367,33,28,25,36,30,34,40,26,2
40.1076443195343,35,26,24,36,30,36,35,28,2
40.13028645515442,34,27,23,34,29,35,33,28,2
40.14468765258789,35,27,24,35,31,37,33,29,2
40.16659116744995,35,28,25,33,30,39,35,30,2
40.191675662994385,36,26,26,28,27,37,37,32,2
40.20468807220459,36,27,27,29,25,36,36,32,2
40.22710204124451,37,27,26,29,27,36,37,34,2
40.25046420097351,29,29,26,31,28,34,34,35,2
40.26554608345032,31,28,25,30,28,35,34,36,2
40.28704857826233,35,31,28,35,29,37,34,35,2
40.31055974960327,34,31,26,33,29,35,36,33,2
40.32477831840515,33,29,30,36,29,37,36,30,2
40.34780716896057,34,28,30,36,27,37,38,29,2
40.36992931365967,34,31,33,41,25,33,36,29,2
40.39219284057617,32,27,31,36,29,34,42,28,2
40.407350301742554,32,28,32,36,28,33,42,31,2
40.430229902267456,36,28,30,35,28,29,42,34,2
40.45279335975647,35,27,31,39,29,30,40,33,2
40.47526240348816,34,23,28,37,29,31,43,30,2
40.49022459983826,35,25,28,37,27,29,35,30,2
40.51261568069458,34,25,27,37,28,28,33,29,2
40.52673816680908,31,25,27,37,29,30,31,26,2
40.54979848861694,31,26,25,31,31,28,32,27,2
40.573254108428955,34,25,23,28,31,30,31,28,2
40.59519577026367,32,24,24,27,30,30,33,30,2
40.61018466949463,31,23,24,27,31,31,34,29,2
40.63293957710266,33,23,22,24,29,30,36,29,2
40.64712333679199,33,23,22,25,27,33,37,31,2
40.669989347457886,31,25,21,30,32,33,37,31,2
40.69287180900574,36,24,20,33,31,33,35,33,2
40.707045793533325,39,25,23,34,31,33,35,32,2
40.73004651069641,37,27,25,37,32,36,43,33,2
40.75276565551758,37,30,24,37,31,35,42,34,2
40.76716709136963,35,28,26,34,28,31,39,36,2
40.7895667552948,31,29,29,36,28,29,41,31,2
40.81275820732117,32,29,28,35,27,33,48,34,2
40.82711744308472,31,25,25,33,24,30,39,35,2
40.84962201118469,32,22,26,39,25,29,39,33,2
40.872984170913696,34,22,26,39,25,38,44,33,2
40.88746404647827,33,20,22,36,25,38,43,35,2
40.909603118896484,30,21,23,37,26,34,35,31,2
40.934062242507935,32,22,23,36,26,36,36,28,2
40.94703769683838,32,21,23,31,25,36,40,27,2
40.969741106033325,33,22,22,31,27,29,37,30,2
40.9928662776947,34,22,23,31,29,33,36,29,2
41.0081684589386,35,23,22,32,30,35,37,31,2
41.02968454360962,36,23,23,33,31,33,37,35,2
41.053175926208496,34,24,24,33,32,40,40,36,2
