,time,chanel1,chanel2,chanel3,chanel4,chanel5,chanel6,chanel7,chanel8,position
0,13.290859937667847,116,54,93,203,83,127,149,58,2
1,13.31394338607788,124,52,78,171,83,127,142,56,2
2,13.336570978164673,127,52,75,144,90,141,158,61,2
3,13.351459741592407,234,64,76,167,190,306,269,85,2
4,13.374093294143677,325,86,64,147,196,331,293,118,2
5,13.396576404571533,423,140,59,146,232,458,473,195,2
6,13.412116289138794,577,225,92,163,306,673,579,237,2
7,13.43402886390686,702,289,118,180,332,748,739,316,2
8,13.456528902053833,770,391,125,162,331,796,827,343,2
9,13.471633672714233,912,516,153,199,390,882,882,375,2
10,13.493859052658081,942,569,165,236,436,923,895,389,2
11,13.51641845703125,944,616,154,241,429,876,874,378,2
12,13.538836002349854,930,669,141,234,428,879,748,325,2
13,13.554094791412354,918,657,142,232,410,810,650,328,2
14,13.576997756958008,782,612,119,220,377,744,582,308,2
15,13.599138736724854,797,564,107,192,318,623,485,272,2
16,13.614039897918701,752,511,101,185,299,541,453,281,2
17,13.63670802116394,690,435,100,188,280,437,459,276,2
18,13.65907621383667,617,383,93,179,274,423,419,234,2
19,13.67403793334961,605,320,88,156,239,362,397,206,2
20,14.619164228439331,90,58,78,99,80,134,92,47,1
21,14.626621723175049,86,57,79,97,79,127,85,47,1
22,14.633354663848877,101,57,72,100,91,157,100,50,1
23,14.641674280166626,95,51,70,97,90,158,112,49,1
24,14.664274454116821,101,52,60,89,88,157,113,50,1
25,14.694597959518433,105,42,47,71,75,137,114,61,1
26,14.70267128944397,118,49,53,75,85,153,120,64,1
27,14.70968747138977,111,46,57,69,72,125,108,64,1
28,14.71720004081726,108,51,66,77,69,115,92,61,1
29,14.718263626098633,106,50,69,79,76,122,96,62,1
30,14.739187955856323,102,52,68,82,81,135,81,62,1
31,14.761365413665771,113,61,76,96,80,118,75,59,1
32,14.776604175567627,118,64,75,99,86,127,77,62,1
33,14.799062252044678,116,62,67,92,87,130,80,64,1
34,14.821509838104248,124,72,81,100,86,139,90,65,1
35,14.83719539642334,123,78,96,113,86,123,97,59,1
36,15.45894169807434,78,47,58,75,73,126,82,42,1
37,15.482238292694092,78,47,56,69,67,115,72,41,1
38,15.504314422607422,77,41,50,60,64,117,69,38,1
39,15.51861310005188,95,42,48,63,72,125,77,53,1
40,15.54093074798584,97,41,45,60,71,119,73,54,1
41,15.564902067184448,93,51,73,88,71,92,66,52,1
42,15.578930616378784,97,55,80,96,81,101,68,52,1
43,15.601448774337769,94,64,80,101,90,113,78,62,1
44,15.623964071273804,81,64,81,101,86,105,76,57,1
45,15.639068603515625,77,64,82,101,83,97,73,57,1
46,15.661558151245117,78,63,69,80,74,92,74,58,1
47,15.684536457061768,75,59,61,77,74,108,82,55,1
48,15.699144124984741,85,48,60,70,66,99,72,47,1
49,15.721723079681396,85,50,63,74,72,112,79,43,1
50,15.743628025054932,89,51,62,72,73,120,82,46,1
51,15.758671283721924,83,44,58,70,75,125,80,46,1
52,15.78153133392334,85,44,59,69,71,116,82,49,1
53,15.80461072921753,75,44,57,67,65,110,79,49,1
54,15.827464580535889,64,39,56,61,58,94,67,50,1
55,15.841681003570557,101,44,58,69,71,133,79,47,1
56,15.924116134643555,106,49,49,65,73,155,87,41,1
57,15.939047574996948,101,47,45,59,67,135,83,43,1
58,15.961479663848877,100,48,53,65,73,138,86,43,1
59,15.983432531356812,104,48,50,63,75,136,86,39,1
60,15.998987913131714,108,46,48,64,70,108,69,41,1
61,16.021925449371338,118,48,57,71,72,106,69,44,1
62,16.04397749900818,98,50,69,82,70,84,58,41,1
63,16.05900526046753,95,49,66,75,60,79,58,46,1
64,16.081711769104004,94,50,67,78,67,113,66,51,1
65,16.10411524772644,93,53,69,76,63,114,66,51,1
66,16.11890482902527,80,53,65,74,64,124,68,50,1
67,16.1415855884552,84,53,64,70,62,124,66,50,1
68,16.164841651916504,100,58,67,72,65,126,71,59,1
69,16.179083585739136,96,57,65,68,57,101,71,63,1
70,16.201539278030396,95,59,74,85,64,104,79,64,1
71,16.224011659622192,95,57,75,85,61,90,76,63,1
72,16.239099740982056,86,53,71,84,63,96,81,64,1
73,16.262024641036987,66,46,69,85,62,97,75,57,1
74,16.28415536880493,68,48,70,84,63,112,80,51,1
75,16.299396991729736,63,42,59,66,55,106,72,51,1
76,16.322659254074097,61,43,60,67,53,107,73,51,1
77,16.344542741775513,65,47,61,66,50,102,66,54,1
78,16.366865158081055,66,48,61,62,49,99,67,52,1
79,16.381587505340576,74,45,63,63,41,75,56,55,1
80,16.404163599014282,82,54,68,71,49,85,58,53,1
81,16.4287052154541,80,52,64,66,50,89,57,57,1
82,16.441516637802124,82,53,62,65,48,90,59,52,1
83,16.4644193649292,81,51,61,63,48,81,60,54,1
84,16.487500190734863,78,51,57,67,61,88,71,55,1
85,16.501556396484375,67,43,52,61,59,88,73,56,1
86,16.52412223815918,69,40,52,59,58,85,75,55,1
87,16.54739284515381,67,37,48,55,63,97,76,55,1
88,16.561423301696777,63,37,44,55,61,96,72,53,1
89,16.584458351135254,64,48,52,56,51,84,56,46,1
90,16.607362985610962,69,54,61,65,55,82,56,45,1
91,16.621803283691406,74,57,67,73,56,83,54,42,1
92,16.644139528274536,73,59,68,72,51,64,55,44,1
93,16.66729474067688,81,62,71,74,52,67,58,41,1
94,16.681812524795532,75,53,65,70,52,75,62,41,1
95,16.70407772064209,73,45,55,59,47,70,58,39,1
96,16.727309226989746,82,43,55,61,60,84,69,41,1
97,16.74209237098694,80,44,58,65,59,81,65,43,1
98,16.764160633087158,72,41,58,64,60,82,63,44,1
99,16.788294792175293,74,45,60,67,63,85,64,47,1
100,16.801754236221313,76,47,63,70,66,98,69,48,1
101,16.824333906173706,62,46,53,57,53,87,63,49,1
102,16.847235202789307,70,46,48,53,57,94,64,50,1
103,16.861466646194458,73,46,52,58,56,94,65,49,1
104,16.884605884552002,86,53,64,72,62,98,63,46,1
105,16.907227039337158,80,52,62,68,55,82,54,48,1
106,16.92156672477722,86,56,73,82,62,87,61,44,1
107,16.94405746459961,79,54,73,82,57,79,58,39,1
108,16.96752953529358,88,62,80,88,64,83,60,38,1
109,16.982046365737915,72,53,69,76,56,69,58,37,1
110,17.004347324371338,77,58,76,83,67,87,66,44,1
111,17.027798652648926,76,55,68,71,60,78,54,43,1
112,17.04160785675049,86,55,65,70,63,83,58,46,1
113,17.064395427703857,79,46,55,64,68,104,85,59,1
114,17.087270975112915,82,50,63,70,72,109,90,62,1
115,17.101548194885254,84,51,58,65,65,105,94,60,1
116,17.12406587600708,81,54,62,69,69,109,97,62,1
117,17.147627115249634,76,56,78,81,73,109,96,61,1
118,17.16151261329651,72,55,77,76,61,85,72,51,1
119,17.184119701385498,73,55,73,69,53,87,66,50,1
120,17.207179307937622,74,54,72,69,50,77,59,45,1
121,17.221463680267334,74,50,68,63,44,75,52,46,1
122,17.24404740333557,70,48,56,52,35,70,58,45,1
123,17.267411947250366,73,48,59,55,38,74,59,44,1
124,17.28156805038452,77,59,80,81,52,73,58,43,1
125,17.304197549819946,73,58,87,85,54,70,54,44,1
126,17.327516078948975,69,58,86,88,56,69,55,41,1
127,17.34993290901184,76,58,86,87,61,92,65,47,1
128,17.364510536193848,73,59,89,93,62,89,70,48,1
129,17.38682270050049,63,50,75,79,58,85,70,46,1
130,17.409371852874756,67,49,69,78,65,106,85,54,1
131,17.424030303955078,66,50,72,77,63,104,86,57,1
132,17.447190046310425,59,49,71,79,60,85,75,55,1
133,17.46980905532837,62,51,72,75,60,83,69,54,1
134,17.492300033569336,65,49,69,72,59,81,71,57,1
135,17.507216691970825,62,47,65,65,47,52,50,49,1
136,17.66422986984253,65,56,78,86,66,99,71,38,1
137,17.687642574310303,64,63,83,93,69,99,73,38,1
138,17.709407091140747,61,62,84,91,67,82,65,40,1
139,17.72379207611084,54,57,78,86,61,75,66,38,1
140,17.74768090248108,55,58,83,93,66,81,80,43,1
141,17.769987106323242,52,52,66,76,53,66,71,41,1
142,17.78413963317871,51,43,57,65,50,61,69,39,1
143,17.807239055633545,58,42,59,69,54,67,75,40,1
144,17.8296480178833,65,43,61,72,59,84,76,41,1
145,17.844128608703613,64,41,58,64,53,78,62,36,1
146,17.8670756816864,66,38,52,59,48,78,58,37,1
147,17.88965630531311,64,36,52,63,54,92,69,43,1
148,17.904096841812134,62,45,63,71,58,92,65,44,1
149,17.927907466888428,56,46,63,67,53,79,61,44,1
150,17.949854373931885,59,45,61,66,53,78,60,46,1
151,17.9643714427948,58,46,62,67,53,72,59,44,1
152,17.98721146583557,63,49,66,66,49,53,49,39,1
153,18.00982904434204,58,44,56,54,44,57,52,35,1
154,18.024027824401855,59,45,54,58,50,66,58,37,1
155,18.04738211631775,54,45,61,60,54,70,61,37,1
156,18.077511072158813,52,43,60,56,54,78,66,37,1
157,18.08424210548401,45,40,53,53,54,90,76,41,1
158,18.107229948043823,46,40,59,54,50,82,72,43,1
159,18.129673719406128,45,41,61,56,52,86,73,39,1
160,18.14418601989746,49,46,59,63,53,86,75,39,1
161,18.167443990707397,59,48,61,66,57,89,74,41,1
162,18.189825534820557,60,51,60,66,54,76,63,41,1
163,18.203460931777954,64,50,55,62,54,77,64,43,1
164,18.226551055908203,67,53,58,62,50,71,61,43,1
165,18.249258518218994,68,49,57,59,47,69,56,40,1
166,18.272311449050903,62,47,57,62,44,61,53,41,1
167,18.294705152511597,64,47,63,65,47,64,56,45,1
168,18.30979347229004,67,52,67,71,52,66,60,49,1
169,18.332093954086304,66,47,63,68,53,61,56,50,1
170,18.346940755844116,59,46,57,62,49,57,55,52,1
171,18.370152711868286,58,52,70,67,51,56,55,51,1
172,18.39241671562195,57,51,68,69,51,50,47,43,1
173,18.407470703125,49,48,62,63,43,46,41,36,1
174,18.429707765579224,51,51,72,76,47,50,45,35,1
175,18.45235586166382,52,51,73,78,50,54,47,34,1
176,18.46670413017273,47,44,59,72,47,54,47,33,1
177,18.48964548110962,48,42,56,68,49,81,60,38,1
178,18.51227355003357,58,50,82,91,61,84,65,39,1
179,18.52626371383667,53,46,77,83,58,81,61,40,1
180,18.549376964569092,64,53,88,91,59,80,63,40,1
181,18.571924686431885,68,58,96,99,62,80,61,39,1
182,18.586405277252197,67,58,100,105,64,53,49,33,1
183,18.609915733337402,59,51,84,96,61,58,45,31,1
184,18.632374048233032,58,49,79,92,58,56,44,29,1
185,18.646487712860107,57,44,70,86,63,73,58,46,1
186,18.669435501098633,60,47,73,88,66,73,58,49,1
187,18.69265079498291,64,53,90,96,69,73,59,49,1
188,18.706464290618896,65,53,90,90,66,69,59,50,1
189,18.72996211051941,67,54,93,93,67,70,62,50,1
190,18.75240731239319,67,56,95,97,62,54,49,36,1
191,18.7669198513031,67,52,91,93,60,55,51,37,1
192,18.79731035232544,64,51,79,87,60,58,55,42,1
193,18.811965227127075,63,50,76,85,59,56,56,44,1
194,18.826679944992065,60,48,71,81,57,54,52,44,1
195,18.850023984909058,51,46,67,80,57,54,50,44,1
196,19.3748939037323,85,47,52,68,72,114,98,58,1
197,19.389827728271484,100,49,52,64,73,116,90,50,1
198,19.412495374679565,117,48,52,57,68,117,93,53,1
199,19.434971570968628,110,45,55,58,56,99,79,51,1
200,19.449923276901245,115,43,49,54,56,99,78,53,1
201,19.472530126571655,132,50,46,55,62,108,79,62,1
202,19.495001077651978,133,50,50,63,66,111,89,69,1
203,19.509807109832764,115,49,49,59,61,97,74,67,1
204,19.53243374824524,122,50,47,64,63,101,80,69,1
205,19.55625343322754,116,58,52,73,69,106,82,72,1
206,19.56925868988037,91,55,60,81,70,102,83,61,1
207,19.592400312423706,71,55,63,78,65,95,78,57,1
208,19.615033864974976,71,57,62,78,65,104,81,54,1
209,19.629055976867676,65,56,60,73,60,91,70,53,1
210,19.652435302734375,74,54,74,74,55,83,66,46,1
211,19.674912452697754,69,54,74,64,51,94,67,47,1
212,19.68928337097168,71,50,67,60,48,88,61,46,1
213,19.71256732940674,74,53,77,68,50,79,59,46,1
214,19.73661732673645,109,60,83,81,62,87,69,54,1
215,19.748581409454346,104,57,71,76,63,93,71,53,1
216,19.7725772857666,105,59,74,83,69,110,81,53,1
217,19.795183897018433,105,60,76,88,72,112,83,50,1
218,19.809234380722046,108,61,71,82,68,112,81,53,1
219,19.83307147026062,76,59,68,82,71,114,91,49,1
220,19.92906641960144,57,48,69,76,63,78,68,41,1
221,19.95259380340576,66,50,70,80,69,94,79,48,1
222,19.97486662864685,72,45,54,71,72,109,80,46,1
223,19.989195823669434,71,49,54,75,72,111,79,46,1
224,20.094910144805908,75,43,49,52,46,69,69,44,1
225,20.10900616645813,72,40,47,45,44,67,69,40,1
226,20.13237714767456,69,36,44,42,44,67,64,36,1
227,20.15474247932434,91,57,85,79,51,69,63,38,1
228,20.17765760421753,87,59,90,86,52,62,56,37,1
229,20.19220209121704,92,69,101,99,58,62,64,40,1
230,20.21432375907898,94,74,105,103,61,65,69,45,1
231,20.238450527191162,96,75,105,102,62,69,69,47,1
232,20.25234079360962,76,60,79,82,56,71,65,44,1
233,20.275946617126465,68,59,77,81,59,75,68,45,1
234,20.29694390296936,60,46,66,68,53,74,62,42,1
235,20.312335729599,55,39,60,62,51,72,55,39,1
236,20.334852933883667,51,38,61,64,50,62,51,35,1
237,20.35745120048523,49,41,63,67,54,66,54,32,1
238,20.372308015823364,53,41,61,65,48,62,55,36,1
239,20.395136833190918,60,42,60,64,52,68,57,40,1
240,20.41780972480774,62,43,59,65,52,70,59,41,1
241,20.432713985443115,75,58,74,77,55,73,64,44,1
242,20.4549400806427,83,64,80,90,65,87,71,46,1
243,20.476715087890625,82,62,78,89,72,101,79,43,1
244,20.491893768310547,72,61,78,88,69,98,77,41,1
245,20.514840364456177,75,65,84,96,73,100,77,40,1
246,20.537275791168213,66,55,78,92,75,105,78,41,1
247,20.551696300506592,59,42,65,74,67,92,78,44,1
248,20.575656175613403,59,42,64,71,61,76,70,42,1
249,20.597243785858154,61,42,64,71,61,72,67,42,1
250,20.611740350723267,61,37,58,62,61,69,66,44,1
251,20.635250329971313,72,43,63,65,61,63,63,45,1
252,20.657992601394653,73,51,75,70,58,54,50,43,1
253,20.68004012107849,76,59,87,85,61,65,55,47,1
254,20.694839239120483,78,60,87,86,62,71,57,46,1
255,20.717894554138184,74,58,85,84,57,70,56,43,1
256,20.740162134170532,63,56,81,84,56,68,52,41,1
257,20.754736185073853,63,54,77,81,52,71,55,39,1
258,20.777671813964844,55,45,65,67,46,57,47,38,1
259,20.791587591171265,50,42,64,66,44,49,47,37,1
260,20.821796894073486,50,44,68,69,45,49,53,39,1
261,20.83732581138611,46,41,60,67,41,46,60,39,1
262,20.851629734039307,41,36,51,61,42,45,63,48,1
263,21.176330089569092,58,46,59,66,44,64,57,35,1
264,21.196441411972046,67,50,66,74,49,65,58,36,1
265,21.220473527908325,67,50,68,74,52,73,58,36,1
266,21.235230207443237,65,49,64,73,51,74,59,38,1
267,21.256587505340576,64,49,61,68,52,89,66,40,1
268,21.280107021331787,66,43,58,71,59,94,76,41,1
269,21.29522156715393,63,38,49,60,52,88,70,42,1
270,21.31719994544983,79,52,73,82,58,84,73,43,1
271,23.85900902748108,37,32,44,127,40,41,50,34,2
272,23.881490230560303,40,31,39,122,40,43,46,33,2
273,23.903717279434204,42,31,38,83,42,46,48,35,2
274,23.927054166793823,39,33,33,78,40,42,45,35,2
275,23.941613912582397,42,32,34,71,41,44,46,38,2
276,23.96460270881653,44,34,31,53,44,67,62,42,2
277,23.986811637878418,44,36,31,45,44,69,65,43,2
278,24.00883936882019,43,35,31,46,42,68,64,43,2
279,24.0244083404541,46,38,35,59,39,70,63,41,2
280,24.0466251373291,45,40,33,63,42,72,67,40,2
281,24.06156039237976,42,39,37,77,40,49,51,32,2
282,24.084174633026123,42,38,42,87,40,45,48,31,2
283,24.106593370437622,44,39,44,93,42,43,43,29,2
284,24.121638774871826,47,40,46,88,46,41,40,29,2
285,24.324312686920166,47,43,57,99,53,54,55,38,2
286,24.346627712249756,47,42,59,103,50,53,53,38,2
287,24.361674547195435,44,41,47,81,40,48,51,38,2
288,24.38462781906128,46,41,48,77,39,49,46,36,2
289,24.407180070877075,44,43,53,95,42,48,48,32,2
290,24.421698331832886,42,39,49,97,39,41,49,35,2
291,24.444454669952393,42,41,48,73,36,37,43,33,2
292,24.466166973114014,48,45,57,77,44,37,43,32,2
293,24.48205304145813,45,43,53,77,44,33,45,33,2
294,24.50413703918457,47,45,57,61,43,35,42,36,2
295,24.526658535003662,53,52,64,69,46,42,47,35,2
296,24.541825532913208,56,55,68,81,53,45,46,32,2
297,24.564719200134277,53,51,65,84,49,42,43,32,2
298,24.587038040161133,53,50,70,92,51,46,42,32,2
299,24.601741075515747,54,48,65,90,51,48,43,29,2
300,24.624167680740356,48,42,56,90,46,45,38,26,2
301,24.646589756011963,45,37,53,94,39,48,51,27,2
302,24.661807775497437,40,35,47,93,36,49,52,25,2
303,24.684160709381104,41,36,42,87,37,48,50,27,2
304,24.706693172454834,41,37,47,107,42,44,51,29,2
305,24.721856832504272,48,46,62,108,50,50,54,33,2
306,24.744276762008667,50,45,63,99,52,49,44,39,2
307,24.766804933547974,53,46,65,102,54,51,47,40,2
308,24.781880378723145,49,43,63,100,53,49,48,38,2
309,24.80416965484619,49,43,60,76,49,53,50,39,2
310,24.827824115753174,43,32,52,74,42,44,43,37,2
311,24.841628551483154,43,36,54,80,41,42,48,34,2
312,24.865193367004395,41,37,55,72,43,47,46,40,2
313,24.88690972328186,46,39,55,78,42,50,44,38,2
314,24.909111976623535,43,38,54,83,40,46,42,38,2
315,24.924354076385498,44,39,53,79,40,48,43,38,2
316,24.946796655654907,39,34,47,67,39,50,37,37,2
317,24.97019076347351,39,32,44,71,37,50,37,31,2
318,24.984137535095215,34,31,44,74,36,45,37,35,2
319,25.006688117980957,32,33,45,78,40,49,39,34,2
320,27.09170389175415,90,44,38,59,69,117,83,69,2
321,27.1149320602417,97,44,36,58,70,124,88,71,2
322,27.129663228988647,93,40,36,55,63,102,88,66,2
323,27.151957750320435,85,42,36,55,62,104,89,60,2
324,27.17533016204834,83,40,36,54,60,104,88,59,2
325,27.18942618370056,76,39,34,42,48,105,70,49,2
326,27.21188998222351,78,37,36,42,48,102,63,53,2
327,27.234384536743164,72,41,43,44,49,112,72,54,2
328,27.249610900878906,73,41,43,41,48,117,82,62,2
329,27.271953582763672,77,43,46,42,50,115,84,63,2
330,27.294959545135498,81,46,48,44,42,97,86,62,2
331,27.309272050857544,77,49,48,50,50,110,90,57,2
332,27.332114219665527,88,51,49,50,50,103,82,55,2
333,27.35487651824951,93,51,50,53,52,98,77,50,2
334,27.36915159225464,91,48,46,49,50,99,74,45,2
335,27.391680002212524,84,45,45,50,51,94,68,45,2
336,27.415696382522583,82,45,48,56,52,77,65,49,2
337,27.42884397506714,67,41,45,57,52,66,62,44,2
338,27.451277494430542,60,41,44,58,56,65,60,43,2
339,27.475183725357056,68,48,52,67,63,85,72,47,2
340,27.489290952682495,72,48,50,66,62,88,71,47,2
341,27.511821746826172,68,45,47,58,55,88,66,41,2
342,27.535773992538452,67,48,48,59,55,90,66,41,2
343,27.549463033676147,74,46,46,58,49,91,61,40,2
344,27.572779417037964,80,44,45,50,44,73,56,38,2
345,27.59501361846924,80,43,47,51,46,73,56,42,2
346,27.60925030708313,80,44,47,50,45,63,55,45,2
347,27.63171648979187,83,40,42,45,41,62,59,45,2
348,27.65511155128479,77,38,43,48,43,56,61,46,2
349,27.66944718360901,64,32,35,47,39,61,54,46,2
350,27.691123723983765,71,33,37,45,40,78,58,44,2
351,27.715263843536377,73,34,42,50,44,83,61,44,2
352,27.72925090789795,83,36,46,51,46,82,59,46,2
353,27.751798152923584,91,38,48,50,51,94,63,51,2
354,27.774811029434204,90,39,47,52,50,91,62,50,2
355,27.798338413238525,85,41,45,52,49,86,67,48,2
356,27.81212544441223,85,40,40,50,54,102,70,49,2
357,27.83456301689148,89,54,59,75,68,124,87,48,2
358,27.857577562332153,87,57,64,75,67,131,98,50,2
359,27.87223505973816,93,60,65,75,75,150,120,54,2
360,27.89493417739868,89,60,68,78,75,147,116,58,2
361,27.917875289916992,95,65,84,96,79,136,115,60,2
362,27.931729316711426,82,56,76,89,82,132,113,60,2
363,27.955464363098145,80,54,70,88,80,119,102,54,2
364,27.97728705406189,91,60,76,91,78,98,84,53,2
365,27.991747856140137,135,66,75,93,84,118,92,55,2
366,28.014993906021118,138,63,58,73,76,115,89,54,2
367,28.037723064422607,145,62,48,57,58,98,77,55,2
368,28.051321744918823,153,64,50,58,62,115,91,65,2
369,28.157835006713867,356,164,66,114,186,349,228,128,2
370,28.171818733215332,398,198,64,120,200,373,245,129,2
371,28.194491147994995,451,214,73,138,239,451,274,141,2
372,28.217002630233765,559,256,82,171,289,495,291,160,2
373,28.231837034225464,606,276,82,161,270,489,309,174,2
374,28.255495309829712,619,269,75,170,280,461,302,180,2
375,28.277512073516846,755,317,87,206,366,624,384,212,2
376,28.29206943511963,752,324,90,197,344,579,373,214,2
377,28.314971685409546,696,300,91,190,332,567,380,207,2
378,28.338125467300415,671,306,87,185,331,576,369,196,2
379,28.351731777191162,630,296,89,179,325,585,357,198,2
380,28.374948263168335,534,278,76,155,263,467,284,167,2
381,28.46424174308777,590,324,75,196,376,634,362,143,2
382,28.49407720565796,504,291,81,201,370,604,379,174,2
383,28.516719102859497,543,245,85,210,362,552,360,179,2
384,28.541156768798828,515,243,76,208,356,536,369,198,2
385,28.622333526611328,532,238,80,196,328,497,333,171,1
386,28.644187211990356,482,246,73,170,297,478,313,153,1
387,28.66759467124939,420,218,67,132,216,380,222,125,1
388,28.691627025604248,435,197,62,132,218,372,221,125,1
389,28.71937656402588,439,195,63,142,253,491,264,123,1
390,28.743494987487793,385,160,59,117,208,415,239,115,1
391,28.766316413879395,380,154,57,114,206,420,245,113,1
392,28.79411745071411,392,157,62,124,211,440,258,115,1
393,28.817058086395264,337,143,70,124,196,428,251,113,1
394,28.841785192489624,326,147,68,102,138,288,197,103,1
395,28.871408939361572,300,145,64,104,137,278,194,98,1
396,28.89175271987915,275,120,65,104,142,264,186,94,1
397,28.916500091552734,253,127,61,96,125,207,158,92,1
398,28.944339275360107,234,138,54,103,137,214,159,95,1
399,28.96681547164917,223,129,57,122,170,266,166,102,1
400,28.997248649597168,174,126,59,124,173,270,162,102,1
401,28.998270511627197,200,148,58,127,172,272,177,110,1
402,29.02694320678711,207,139,57,126,169,271,175,104,1
403,29.04928755760193,214,126,61,118,172,313,202,107,1
404,29.079206705093384,223,124,52,92,123,254,176,100,1
405,29.10184931755066,236,129,53,91,126,253,171,99,1
406,29.125511169433594,237,124,54,83,112,234,155,92,1
407,29.154144525527954,270,134,60,84,122,251,163,101,1
408,29.17696237564087,277,148,52,77,109,204,122,108,1
409,29.19964575767517,258,145,54,73,102,204,120,109,1
410,29.22925853729248,252,138,52,74,103,216,131,109,1
411,29.252002716064453,229,120,53,76,104,205,126,108,1
412,29.28212547302246,179,99,46,71,97,188,118,99,1
413,29.304049253463745,198,79,51,79,101,195,120,83,1
414,29.326144456863403,210,86,48,77,97,176,114,80,1
415,29.35169529914856,221,85,50,70,86,152,106,80,1
416,29.37913966178894,218,86,49,70,88,152,104,84,1
417,29.402207612991333,222,85,49,74,102,175,106,81,1
418,29.425994634628296,174,69,42,62,87,147,101,72,1
419,29.454209089279175,155,60,42,73,92,161,102,70,1
420,29.485013961791992,177,61,40,89,113,194,102,67,1
421,29.506805419921875,235,63,40,93,122,199,110,66,1
422,29.529269218444824,258,80,47,88,106,172,97,70,1
423,29.552411794662476,281,88,46,101,113,202,107,73,1
424,29.581862211227417,305,97,55,117,134,224,123,77,1
425,29.604546308517456,283,94,54,108,127,218,121,71,1
426,29.62635374069214,240,92,56,108,122,213,111,71,1
427,29.6571147441864,214,80,51,111,128,221,116,76,1
428,29.680214643478394,203,75,50,103,126,200,110,74,1
429,29.70275354385376,172,64,40,74,98,163,96,72,1
430,29.731703996658325,169,67,41,79,105,190,109,81,1
431,29.75496554374695,186,65,36,73,98,189,120,98,1
432,29.778640508651733,181,63,37,70,111,204,130,102,1
433,29.80699610710144,160,62,43,70,110,200,126,101,1
434,29.82941174507141,153,61,43,68,109,200,125,102,1
435,29.853689908981323,171,55,46,66,93,155,111,99,1
436,29.881903171539307,176,57,46,79,114,180,118,90,1
437,29.904335975646973,170,55,43,81,99,169,106,78,1
438,29.934249877929688,179,52,41,91,103,181,118,83,1
439,29.956864833831787,203,60,44,93,110,203,124,84,1
440,29.979150772094727,189,59,41,88,112,205,135,80,1
441,30.009136199951172,169,62,40,77,107,224,135,74,1
442,30.031832695007324,188,73,43,76,119,238,149,94,1
443,30.054665565490723,174,70,43,61,113,226,140,90,1
444,30.083962440490723,157,63,42,73,111,212,137,90,1
445,30.106875896453857,193,66,41,72,112,219,125,88,1
446,30.12932300567627,200,64,42,71,108,201,115,87,1
447,30.15925669670105,204,71,43,67,88,167,98,72,1
448,30.181754112243652,203,70,39,69,93,182,103,72,1
449,30.206239938735962,225,74,38,72,111,210,117,84,1
450,30.23422336578369,193,76,39,70,101,190,110,84,1
451,30.25863289833069,182,72,43,70,94,168,108,78,1
452,30.279457569122314,177,64,44,77,111,205,144,97,1
453,30.309612274169922,239,74,45,77,109,193,141,102,1
454,30.331894397735596,209,71,48,76,94,162,129,88,1
455,30.354219675064087,214,69,48,77,97,169,133,89,1
456,30.385016918182373,219,71,46,83,95,173,133,93,1
457,30.406724214553833,216,63,48,85,75,128,89,64,1
458,30.4312527179718,182,70,50,95,103,182,119,58,1
459,30.459187269210815,182,68,47,84,97,181,120,58,1
460,30.481674432754517,174,67,48,82,93,173,115,58,1
461,30.511776447296143,171,63,47,77,97,173,117,54,1
462,30.534493923187256,157,62,41,67,103,185,121,58,1
463,30.556840896606445,178,59,42,52,77,158,95,57,1
464,30.5875301361084,179,58,44,51,76,156,98,57,1
465,30.609530210494995,181,59,43,55,83,165,105,60,1
466,30.632184743881226,179,64,43,52,79,169,100,61,1
467,30.661351203918457,186,63,43,50,73,168,102,59,1
468,30.683760166168213,155,54,48,68,101,186,113,63,1
469,30.708929538726807,147,52,45,69,105,192,106,62,1
470,30.73737668991089,144,52,42,73,113,209,113,58,1
471,30.759384632110596,158,57,46,73,115,225,121,61,1
472,30.783556699752808,153,64,51,72,117,230,112,61,1
473,30.811426639556885,121,60,41,54,96,210,109,63,1
474,30.834306478500366,123,62,43,68,93,210,107,66,1
475,30.856852054595947,124,62,45,63,79,189,94,66,1
476,30.886686325073242,111,59,41,69,80,173,102,67,1
477,30.909197568893433,129,64,41,86,115,224,163,97,1
478,30.93415331840515,127,61,42,87,112,213,156,92,1
479,30.96187734603882,133,66,48,79,108,206,160,91,1
480,30.983755350112915,149,80,47,82,116,218,171,93,1
481,31.009269952774048,140,82,57,83,110,212,164,98,1
482,31.03681254386902,118,74,54,66,68,140,112,69,1
483,31.05949091911316,131,77,54,62,64,137,109,67,1
484,31.08939528465271,145,82,50,73,101,231,130,67,1
485,31.111700296401978,145,69,51,72,96,223,116,69,1
486,31.134310722351074,141,63,38,65,96,218,109,52,1
487,31.15721297264099,161,63,36,62,98,225,102,56,1
488,31.18703269958496,150,60,41,70,107,237,109,59,1
489,31.209230661392212,136,51,37,53,79,158,77,59,1
490,31.231703758239746,122,50,39,56,77,156,88,61,1
491,31.26174569129944,121,51,43,65,87,180,95,62,1
492,31.28369951248169,98,50,43,65,85,170,95,63,1
493,31.306705236434937,107,52,41,60,79,170,94,62,1
494,31.337077617645264,103,47,44,61,73,156,89,61,1
495,31.338552474975586,92,46,39,55,77,156,86,57,1
496,31.352526903152466,90,49,43,60,96,193,100,62,1
497,31.353596925735474,92,52,44,63,103,206,114,61,1
498,31.368687868118286,81,48,42,61,99,188,109,61,1
499,31.371984720230103,95,50,41,62,101,188,110,62,1
500,31.37362790107727,95,50,44,61,98,186,105,58,1
501,31.381922721862793,126,49,39,50,73,137,93,65,1
502,31.389559984207153,129,48,40,46,62,118,78,63,1
503,31.397361993789673,130,50,40,48,67,128,81,63,1
504,31.40500521659851,122,53,43,49,67,133,85,65,1
505,31.411774396896362,139,57,44,48,66,134,86,68,1
506,31.419696807861328,135,58,42,45,63,118,87,61,1
507,31.42632532119751,134,56,41,49,79,136,102,73,1
508,31.434523820877075,145,61,44,49,77,133,104,72,1
509,31.43540382385254,148,67,49,51,75,130,106,72,1
510,31.450618982315063,144,62,47,55,81,150,127,79,1
511,31.451989889144897,128,58,48,57,80,145,124,77,1
512,31.456849575042725,127,63,52,56,66,135,109,63,1
513,31.46610736846924,115,58,50,56,73,153,112,66,1
514,31.472092151641846,107,46,43,50,72,152,107,68,1
515,31.47983145713806,105,45,44,45,64,134,83,63,1
516,31.486729860305786,100,50,45,45,65,137,85,64,1
517,31.4942569732666,103,50,41,48,66,129,88,64,1
518,31.502407550811768,109,50,41,49,59,107,85,68,1
519,31.509207725524902,116,52,39,50,68,133,91,66,1
520,31.51680016517639,111,52,36,46,68,127,88,63,1
521,31.525896310806274,115,53,36,48,66,129,82,58,1
522,31.532105922698975,113,48,38,42,76,169,78,61,1
523,31.540005922317505,109,51,39,39,74,165,68,53,1
524,31.54670786857605,109,50,42,40,67,148,58,51,1
525,31.554968118667603,109,55,44,40,71,150,55,50,1
526,31.55600142478943,114,54,44,51,112,214,82,61,1
527,31.564770936965942,109,56,42,54,103,185,79,56,1
528,31.56931233406067,108,57,41,52,103,194,85,59,1
529,31.577495574951172,98,57,41,56,104,199,93,60,1
530,31.584306716918945,99,55,41,58,104,202,97,60,1
531,31.591814517974854,99,59,44,50,63,131,81,51,1
532,31.60039710998535,106,58,42,52,65,132,87,57,1
533,31.622764587402344,102,55,44,55,66,122,82,52,1
534,31.644962549209595,104,52,41,56,72,148,86,56,1
535,31.660244464874268,100,51,41,56,65,136,78,53,1
536,31.682406663894653,104,46,38,55,65,144,81,57,1
537,31.70502495765686,93,44,37,50,58,136,76,51,1
538,31.719846487045288,94,46,37,48,57,137,84,58,1
539,31.74290132522583,105,50,37,41,47,99,78,64,1
540,31.765031099319458,100,50,40,48,58,123,81,66,1
541,31.779428958892822,79,43,36,54,77,156,97,64,1
542,31.80279564857483,83,43,38,53,79,157,97,65,1
543,31.825625896453857,114,46,41,58,86,172,103,69,1
544,31.839264154434204,120,45,42,62,89,178,105,67,1
545,31.862740755081177,120,45,42,56,86,175,105,67,1
546,31.886082410812378,119,49,43,48,64,135,83,64,1
547,31.899234533309937,123,50,41,48,67,140,83,64,1
548,31.922343492507935,111,51,40,50,69,130,73,57,1
549,31.94513964653015,91,48,44,47,61,114,61,45,1
550,31.95947551727295,109,59,42,51,73,131,79,52,1
551,31.98270058631897,112,59,41,51,74,130,79,52,1
552,32.00460147857666,105,61,48,56,74,133,83,57,1
553,32.02675986289978,101,65,46,53,72,154,88,55,1
554,32.044535875320435,102,66,42,54,79,170,96,60,1
555,32.06426763534546,84,56,44,54,74,157,81,54,1
556,32.086719036102295,82,54,45,56,77,160,86,55,1
557,32.10389304161072,93,53,38,51,82,169,86,51,1
558,32.1248095035553,92,41,35,48,78,150,85,50,1
559,32.14681100845337,99,41,38,52,83,155,89,47,1
560,32.16372489929199,97,42,38,47,78,153,91,50,1
561,32.18443512916565,100,44,40,46,76,150,88,49,1
562,32.20716905593872,94,45,40,45,68,128,82,49,1
563,32.222960472106934,91,47,42,45,61,115,74,52,1
564,32.24376153945923,86,48,43,40,48,99,68,51,1
565,32.26680636405945,86,51,45,40,43,82,66,51,1
566,32.28436088562012,82,49,46,47,42,84,63,51,1
567,32.30449867248535,88,47,48,47,50,110,73,49,1
568,32.326979637145996,76,47,47,47,55,121,78,52,1
569,32.34421491622925,89,47,51,50,54,110,84,57,1
570,32.3642520904541,91,42,51,59,59,122,84,59,1
571,32.38688826560974,93,44,49,59,79,154,100,60,1
572,32.40408277511597,100,44,46,62,80,163,110,63,1
573,32.42471170425415,100,42,46,62,77,155,104,57,1
574,32.44681239128113,84,38,41,58,77,155,94,49,1
575,32.46373701095581,82,37,38,51,73,151,98,44,1
576,32.484426498413086,88,37,37,43,49,118,85,40,1
577,32.50674486160278,68,38,38,38,35,78,61,35,1
578,32.52455711364746,75,44,42,46,47,85,66,40,1
579,32.54430890083313,80,46,41,49,47,89,77,44,1
580,32.56675052642822,79,47,39,49,48,81,71,44,1
581,32.58397912979126,67,45,38,52,67,106,75,45,1
582,32.60468363761902,72,44,41,56,71,113,82,48,1
583,32.62699317932129,76,43,41,52,74,126,90,48,1
584,32.64377546310425,76,43,43,52,79,148,84,49,1
585,32.664698123931885,80,44,43,54,80,154,85,52,1
586,32.687068462371826,82,43,45,52,67,143,86,51,1
587,32.70394706726074,78,43,45,57,83,182,104,56,1
588,32.72429656982422,76,42,43,57,77,178,99,54,1
589,32.75440454483032,70,38,38,53,72,159,96,50,1
590,32.76367950439453,64,35,41,55,75,162,98,46,1
591,32.784379959106445,67,42,40,56,78,166,103,52,1
592,32.80666780471802,64,40,34,47,56,115,81,46,1
593,32.82432818412781,52,37,34,41,53,103,75,44,1
594,32.84437847137451,63,46,41,57,68,119,79,64,1
595,32.86715292930603,64,49,39,56,63,109,75,63,1
596,32.88424301147461,61,44,41,52,62,114,67,64,1
597,32.9048216342926,65,47,49,60,71,122,67,64,1
598,32.926841259002686,65,48,50,63,77,128,77,65,1
599,32.943572998046875,56,39,47,49,66,122,81,48,1
600,32.964375734329224,55,37,43,49,74,129,86,50,1
601,32.98712635040283,51,37,40,48,69,111,77,48,1
602,33.00365996360779,48,32,34,41,60,109,76,51,1
603,33.02449297904968,46,31,31,37,55,112,73,50,1
604,33.04743766784668,55,34,34,44,60,118,75,53,1
605,33.06351280212402,59,37,38,43,57,113,72,55,1
606,33.08449125289917,58,36,38,43,58,114,74,50,1
607,33.10645866394043,65,46,45,50,64,123,75,43,1
608,33.1228187084198,65,48,48,58,71,119,73,43,1
609,33.144484519958496,66,50,55,63,74,110,72,41,1
610,33.16669535636902,65,48,55,64,70,109,66,38,1
611,33.18352556228638,65,47,55,64,73,117,72,42,1
612,33.20373797416687,56,38,51,60,68,108,71,42,1
613,33.22724509239197,59,37,48,53,63,107,65,41,1
614,33.244672536849976,55,34,43,47,51,98,53,37,1
615,33.263970136642456,56,34,47,57,60,99,68,45,1
616,33.28728795051575,55,34,47,57,56,87,61,43,1
617,33.31112813949585,64,40,49,61,65,102,68,44,1
618,33.32427477836609,64,40,52,63,64,99,67,42,1
619,33.34675741195679,58,36,47,59,64,105,73,47,1
620,33.369377851486206,53,35,43,48,51,99,62,41,1
621,33.38523817062378,55,36,47,54,64,122,74,41,1
622,33.40679097175598,45,30,43,54,78,153,94,45,1
623,34.56945514678955,141,64,49,76,99,162,111,78,1
624,34.592071533203125,152,67,43,78,96,154,103,71,1
625,34.60913109779358,146,59,45,70,90,161,103,66,1
626,34.71180605888367,162,77,64,85,104,193,145,96,1
627,34.72676730155945,171,66,61,82,102,201,138,91,1
628,34.75644087791443,158,57,59,76,96,198,135,87,1
629,34.92935276031494,170,65,50,59,77,151,103,68,1
630,34.954161167144775,169,85,47,62,84,141,101,72,1
631,34.981823205947876,170,87,48,62,82,136,98,65,1
632,35.00490188598633,141,82,48,63,76,130,91,60,1
633,35.03104901313782,136,84,54,76,85,132,94,58,1
634,35.056928873062134,143,83,53,76,93,156,104,63,1
635,35.07981085777283,122,57,44,65,85,163,104,55,1
636,35.10292172431946,130,52,41,70,96,186,106,64,1
637,35.131879568099976,154,53,39,70,102,206,113,64,1
638,35.140034437179565,150,61,36,64,95,199,108,66,1
639,35.141061305999756,149,66,35,68,95,188,101,62,1
640,35.14880561828613,151,67,35,67,88,164,92,66,1
641,35.15459871292114,154,70,35,61,77,152,94,59,1
642,35.162620544433594,176,74,42,76,100,183,126,69,1
643,35.16932821273804,180,74,43,74,104,216,134,70,1
644,35.19317317008972,173,72,42,70,103,229,136,74,1
645,35.21425795555115,198,79,47,78,120,261,147,77,1
646,35.229172706604004,197,78,47,81,128,286,150,80,1
647,35.25186204910278,184,92,52,79,122,289,134,77,1
648,35.27459907531738,186,93,49,79,118,277,129,82,1
649,35.289923667907715,225,97,50,95,162,354,163,95,1
650,35.3119113445282,248,115,54,113,198,419,205,109,1
651,35.334593296051025,294,133,61,117,198,407,207,119,1
652,35.34946084022522,303,140,59,113,193,387,202,135,1
653,35.371771574020386,316,141,60,112,197,398,218,142,1
654,35.394322872161865,336,153,61,102,165,333,198,146,1
655,35.40949726104736,324,145,64,94,138,263,183,147,1
656,35.43141007423401,291,140,60,98,161,313,213,143,1
657,35.454692363739014,282,143,55,94,159,322,217,128,1
658,35.46880102157593,290,145,57,111,186,375,256,121,1
659,35.492427825927734,272,178,56,114,196,382,262,115,1
660,35.514392375946045,296,178,50,114,200,401,262,109,1
661,35.53000783920288,317,174,47,109,187,374,243,106,1
662,35.55187726020813,341,179,57,135,217,392,273,113,1
663,35.57502269744873,396,195,56,141,232,432,296,135,1
664,35.58938121795654,393,166,60,140,225,437,291,136,1
665,35.61197376251221,430,196,57,134,217,432,278,148,1
666,35.63489031791687,437,201,59,131,208,420,276,154,1
667,35.649385929107666,429,211,54,111,188,440,258,152,1
668,35.67188549041748,424,221,54,94,154,381,184,142,1
669,35.69528365135193,456,221,49,96,161,389,186,148,1
670,35.70943260192871,472,239,51,97,162,386,201,144,1
671,35.731940269470215,456,235,48,98,167,393,198,144,1
672,35.75440716743469,464,248,43,110,173,373,191,145,1
673,35.76940631866455,435,250,51,103,161,350,181,145,1
674,35.79227638244629,397,244,54,96,151,329,174,128,1
675,35.81443786621094,307,200,56,89,133,287,142,121,1
676,35.82893657684326,299,211,59,87,126,274,155,112,1
677,35.85184955596924,262,165,58,60,98,239,150,117,1
678,35.874648332595825,240,125,49,66,97,212,160,111,1
679,35.88937067985535,249,139,46,64,85,198,166,115,1
680,35.911861419677734,247,138,47,77,113,244,186,112,1
681,35.93423247337341,249,126,48,80,118,255,168,115,1
682,35.94929528236389,320,163,55,78,117,260,154,108,1
683,35.97194218635559,301,161,57,72,111,249,135,96,1
684,35.994470834732056,277,153,57,74,123,257,127,95,1
685,36.00935435295105,298,175,51,60,106,227,117,90,1
686,36.03207349777222,307,167,47,53,98,206,115,81,1
687,36.05442142486572,261,140,39,54,96,180,121,76,1
688,36.069331884384155,269,137,39,58,101,192,127,76,1
689,36.09188532829285,276,127,41,59,94,182,146,99,1
690,36.114402532577515,245,100,39,59,84,159,126,90,1
691,36.13712215423584,230,119,40,65,91,166,128,95,1
692,36.152082681655884,202,114,40,66,88,169,118,93,1
693,36.17435312271118,191,116,36,81,124,220,138,101,1
694,36.19725775718689,218,117,41,84,128,219,130,92,1
695,36.211827754974365,213,103,42,82,128,214,129,91,1
696,36.2343270778656,261,91,45,83,130,241,147,87,1
697,36.25724530220032,256,88,43,82,131,250,152,94,1
698,36.271828174591064,256,84,41,62,95,193,129,84,1
699,36.29440426826477,219,84,38,57,87,207,126,71,1
700,36.31680512428284,242,85,39,58,88,212,126,72,1
701,36.33190321922302,187,91,39,57,88,197,108,76,1
702,36.35466718673706,176,85,39,56,86,193,99,67,1
703,36.37686848640442,218,89,39,62,96,202,101,80,1
704,36.39195680618286,220,84,37,58,92,183,98,77,1
705,36.414342403411865,216,91,36,57,93,177,110,86,1
706,36.437166929244995,210,80,33,54,84,160,112,80,1
707,36.45194172859192,216,84,35,59,94,167,129,87,1
708,36.47439694404602,187,82,35,55,85,162,131,75,1
709,36.49690914154053,191,82,36,83,121,213,143,95,1
710,36.51229524612427,167,73,39,90,122,216,137,89,1
711,36.53456425666809,160,63,43,91,125,225,134,87,1
712,36.556986570358276,183,63,45,105,140,229,121,85,1
713,36.572285175323486,192,73,47,110,148,242,135,93,1
714,36.594773054122925,205,81,46,92,122,198,111,70,1
715,36.61688256263733,214,81,43,96,135,205,116,71,1
716,36.631988525390625,205,79,40,91,128,184,108,72,1
717,36.65493178367615,185,75,35,73,105,159,105,66,1
718,36.6771285533905,168,78,32,70,105,155,94,57,1
719,36.69163250923157,157,89,44,88,124,192,126,63,1
720,36.71501445770264,141,88,47,77,107,185,127,61,1
721,36.73716187477112,148,90,50,80,109,190,139,76,1
722,36.75181579589844,130,88,50,78,108,194,141,80,1
723,36.774543046951294,167,78,50,78,118,236,149,85,1
724,36.79688549041748,171,60,40,55,97,215,128,94,1
725,36.81182384490967,179,57,34,58,100,227,127,96,1
726,36.83440065383911,181,54,30,64,122,271,133,85,1
727,36.85684847831726,200,56,29,64,122,269,130,82,1
728,36.95448017120361,159,61,36,69,113,198,97,63,1
729,36.97723126411438,170,61,35,68,116,199,107,65,1
730,36.99151635169983,167,58,32,60,95,152,92,58,1
731,37.01399326324463,187,63,30,61,99,169,97,64,1
732,37.03694224357605,173,59,33,55,101,191,109,72,1
733,37.06040358543396,169,58,32,45,80,167,94,67,1
734,37.07427954673767,155,54,29,43,77,159,83,64,1
735,37.09697771072388,178,67,32,50,94,193,94,66,1
736,37.12004828453064,132,59,39,57,98,186,97,59,1
737,37.13476490974426,131,59,36,64,98,198,97,51,1
738,37.157087326049805,145,65,38,65,98,197,100,57,1
739,37.180089473724365,160,73,36,67,103,205,103,58,1
740,37.19433617591858,180,71,38,76,107,199,114,71,1
741,37.22519326210022,184,72,34,74,108,206,114,74,1
742,37.240456342697144,208,77,35,67,101,174,111,74,1
743,37.2542884349823,201,73,35,72,107,195,113,72,1
744,37.27714395523071,198,71,43,75,104,186,113,72,1
745,37.30015015602112,183,67,41,63,86,175,106,64,1
746,37.314478397369385,181,66,39,59,77,165,98,60,1
747,37.33693289756775,169,60,42,67,111,260,138,64,1
748,37.36095571517944,163,59,42,62,105,247,135,62,1
749,37.37445688247681,152,54,37,57,109,255,145,66,1
750,37.39690971374512,143,53,35,69,128,270,153,62,1
751,37.420032262802124,201,57,34,68,130,271,162,74,1
752,37.4429235458374,187,56,31,57,94,170,123,73,1
753,37.45699667930603,201,57,34,60,98,172,137,83,1
754,37.479576587677,232,75,46,61,95,174,146,82,1
755,37.49435114860535,221,72,48,53,68,140,130,83,1
756,37.51711583137512,169,67,47,54,67,135,119,74,1
757,37.540247201919556,166,67,48,68,94,189,140,81,1
758,37.55442833900452,150,64,47,78,111,222,141,72,1
759,37.57712960243225,107,48,46,81,115,226,133,73,1
760,37.600409269332886,101,47,43,79,116,227,139,72,1
761,37.614535331726074,195,72,46,87,141,278,154,76,1
762,37.63710117340088,212,72,44,81,131,254,138,66,1
763,37.66001534461975,217,73,48,82,132,257,151,81,1
764,37.67463159561157,212,70,39,80,133,248,142,82,1
765,37.696948289871216,219,71,39,79,134,249,139,82,1
766,37.72085452079773,145,47,38,70,108,194,126,86,1
767,37.73470401763916,129,52,42,75,111,196,132,89,1
768,37.75731611251831,124,50,35,61,87,146,98,76,1
769,37.78014540672302,129,49,33,59,91,197,120,80,1
770,37.79381322860718,119,52,34,64,100,208,130,86,1
771,37.81716990470886,118,53,32,62,97,201,128,83,1
772,37.840259075164795,119,46,29,51,96,223,129,75,1
773,37.854551553726196,118,48,31,52,97,227,131,77,1
774,37.87775230407715,125,55,31,45,84,183,110,70,1
775,37.90061807632446,129,56,30,37,72,175,114,82,1
776,37.91433024406433,124,56,33,35,69,179,111,77,1
777,37.9368953704834,131,60,43,66,94,203,135,96,1
778,37.96055579185486,134,60,41,69,94,203,136,96,1
779,37.97483420372009,119,51,44,76,102,208,139,94,1
780,37.996885538101196,112,47,48,80,103,206,126,80,1
781,38.02031183242798,114,43,46,85,111,214,134,86,1
782,38.042588233947754,97,45,40,61,82,157,97,64,1
783,38.05702304840088,92,42,41,59,83,157,96,58,1
784,38.08769726753235,103,46,40,58,89,170,109,59,1
785,38.102622270584106,112,45,36,54,88,170,117,63,1
786,38.117302656173706,111,45,36,50,81,157,108,54,1
787,38.14026975631714,104,37,35,51,80,150,113,57,1
788,38.162638902664185,114,44,33,56,106,204,125,65,1
789,38.17694926261902,102,40,32,55,101,199,110,65,1
790,38.20010828971863,86,39,30,56,103,196,96,61,1
791,38.22269558906555,89,43,29,66,135,289,134,68,1
792,38.23702049255371,92,45,28,68,135,291,129,65,1
793,38.260122537612915,74,41,29,62,115,255,117,60,1
794,38.28274345397949,77,47,30,58,116,264,124,61,1
795,38.29690742492676,97,49,31,56,113,265,128,62,1
796,38.32010841369629,96,49,31,41,72,162,87,56,1
797,38.34295868873596,101,48,30,36,70,159,89,56,1
798,38.35724925994873,108,50,31,41,75,170,88,57,1
799,38.379440784454346,108,47,31,40,65,143,79,53,1
800,38.403002977371216,90,47,33,43,65,142,72,49,1
801,38.416937828063965,82,44,33,42,65,145,79,46,1
802,38.43960618972778,83,43,34,50,72,159,80,50,1
803,38.462539196014404,71,42,34,48,71,172,87,48,1
804,38.476908445358276,64,35,31,47,68,167,83,48,1
805,38.49941539764404,65,31,28,48,73,174,95,47,1
806,38.52267646789551,74,33,29,50,74,171,96,47,1
807,38.53689789772034,74,40,30,44,76,184,115,58,1
808,38.55948042869568,75,39,30,43,71,164,107,57,1
809,38.58268761634827,80,44,34,45,73,162,111,57,1
810,38.59684944152832,100,50,34,46,73,152,111,61,1
811,38.61958050727844,97,50,33,47,78,164,107,60,1
812,38.64271879196167,92,46,28,52,81,154,100,52,1
813,38.65630888938904,98,46,27,57,95,184,125,62,1
814,38.679332971572876,98,44,23,57,96,187,126,63,1
815,38.70257616043091,90,40,26,59,103,217,133,72,1
816,38.71685719490051,91,38,28,59,104,221,137,73,1
817,38.73981428146362,94,38,29,56,97,208,124,67,1
818,38.76253628730774,89,37,30,54,93,191,114,61,1
819,38.77693748474121,86,35,30,59,100,201,116,63,1
820,38.79947638511658,86,35,36,58,96,191,108,56,1
821,38.82252287864685,86,34,39,53,88,167,99,54,1
822,38.83915591239929,81,32,39,50,87,164,99,53,1
823,38.859527826309204,87,33,39,47,78,159,89,56,1
824,38.88273525238037,94,40,41,42,66,143,79,53,1
825,38.89726495742798,91,41,38,46,56,138,76,44,1
826,38.91926097869873,90,46,34,45,65,177,93,48,1
827,38.94237971305847,87,48,35,46,66,179,89,49,1
828,38.9646692276001,79,46,35,47,60,168,85,43,1
829,38.980061054229736,79,44,37,52,73,185,98,43,1
830,39.00262951850891,69,42,34,49,77,188,110,44,1
831,39.02528476715088,76,39,32,49,72,159,100,41,1
832,39.03965950012207,83,36,34,52,77,163,105,41,1
833,39.06250190734863,93,40,35,50,80,172,108,47,1
834,39.08540678024292,87,47,31,56,95,194,120,56,1
835,39.099507093429565,87,46,29,52,90,175,104,57,1
836,39.12269449234009,80,44,28,60,100,188,113,62,1
837,39.145530462265015,76,47,27,58,98,186,110,63,1
838,39.15928268432617,72,49,26,62,101,201,115,60,1
839,39.18324637413025,99,48,26,53,83,180,102,59,1
840,39.20493817329407,98,49,28,54,80,175,101,57,1
841,39.362305641174316,107,46,30,47,68,124,85,59,1
842,39.385340213775635,97,46,34,44,56,121,88,60,1
843,39.39939856529236,105,47,37,44,64,138,99,60,1
844,39.422717571258545,101,51,38,46,70,148,98,56,1
845,39.44585418701172,104,54,38,50,73,156,103,56,1
846,39.45954418182373,88,52,37,50,71,155,98,48,1
847,39.48274040222168,89,51,37,50,78,180,104,48,1
848,39.505327463150024,83,46,35,56,87,188,120,67,1
849,39.51947474479675,83,40,32,54,83,183,122,67,1
850,39.542975664138794,79,33,32,51,78,174,115,65,1
851,39.56532073020935,86,35,33,58,90,177,126,85,1
852,39.57943153381348,85,33,29,57,87,151,121,87,1
853,39.60322403907776,79,34,30,54,80,148,104,75,1
854,39.62543773651123,75,33,31,55,81,146,104,77,1
855,39.639983892440796,85,41,34,66,97,170,118,80,1
856,39.66263556480408,73,37,35,64,98,192,110,55,1
857,39.68546962738037,68,35,34,61,97,198,112,51,1
858,39.69942784309387,66,35,34,62,97,207,114,52,1
859,39.72265911102295,71,44,36,63,101,217,121,62,1
860,39.74486994743347,69,42,33,54,88,202,106,62,1
861,39.75957942008972,75,43,35,55,84,182,95,74,1
862,39.78253412246704,86,48,36,59,95,204,103,84,1
863,39.805083990097046,89,48,35,58,91,184,96,84,1
864,39.82809042930603,94,43,33,56,90,178,88,76,1
865,39.84320855140686,101,52,40,77,119,208,109,82,1
866,39.86544418334961,134,63,37,86,135,240,165,91,1
867,39.87960362434387,150,74,42,99,157,280,207,114,1
868,39.90223836898804,286,131,48,107,185,377,278,151,1
869,39.92539358139038,329,167,62,122,206,422,313,174,1
870,39.94771146774292,357,173,60,120,211,451,330,180,1
871,39.96258807182312,360,174,61,113,200,435,311,177,1
872,39.98546361923218,383,188,61,109,197,433,292,167,1
873,40.00821495056152,410,177,59,114,188,399,264,160,1
874,40.02264738082886,408,162,49,110,198,433,260,142,1
875,40.045196533203125,412,168,51,110,197,416,242,133,1
876,40.14331126213074,348,226,54,108,175,409,239,156,1
877,40.16536736488342,325,190,53,102,161,370,205,123,1
878,40.187915086746216,326,207,57,121,208,415,213,132,1
879,40.20255780220032,364,218,59,129,228,428,228,139,1
880,40.22526574134827,383,227,59,137,238,390,223,148,1
881,40.24845480918884,382,214,48,127,230,379,226,149,1
882,40.26290535926819,395,233,52,134,238,408,233,169,1
883,40.284740686416626,395,203,50,117,199,366,230,166,1
884,40.30808639526367,367,223,47,135,226,440,231,161,1
885,40.321826457977295,352,223,45,136,229,452,226,144,1
886,40.34515714645386,341,221,46,135,223,438,208,139,1
887,40.36774301528931,323,206,42,135,222,433,218,124,1
888,40.38192272186279,308,256,35,126,212,405,204,119,1
889,40.40505266189575,315,240,32,91,151,304,190,119,1
890,40.4277880191803,276,217,34,98,161,324,193,114,1
891,40.44197106361389,266,221,34,88,152,327,184,110,1
892,40.46533203125,271,221,31,79,139,298,161,100,1
893,40.488359451293945,270,156,33,84,154,344,182,94,1
894,40.50194072723389,252,125,41,84,153,342,172,90,1
895,40.526468992233276,244,127,43,59,107,283,153,92,1
896,40.547645807266235,253,120,45,62,112,275,159,97,1
897,40.56196689605713,203,105,47,59,108,267,157,97,1
898,40.58474636077881,149,98,45,50,77,193,122,87,1
899,40.60701608657837,202,107,43,76,112,208,123,94,1
900,40.62188935279846,198,118,43,82,118,212,127,95,1
901,40.64544486999512,183,104,39,78,108,199,113,84,1
902,40.66788029670715,188,106,43,83,114,206,113,82,1
903,40.68196439743042,203,113,43,86,120,212,127,88,1
904,40.70516228675842,156,108,39,70,101,226,130,91,1
905,40.72776389122009,163,113,42,63,93,207,112,86,1
906,40.74199032783508,178,113,41,73,112,227,123,95,1
907,40.765910387039185,185,113,38,70,108,222,124,95,1
908,40.78799057006836,179,104,38,67,103,216,106,89,1
909,40.80243802070618,165,99,38,58,86,162,95,80,1
910,40.82517862319946,199,72,34,85,117,186,154,103,1
911,40.84808301925659,186,67,33,82,104,159,147,94,1
912,40.87018299102783,207,105,35,105,161,261,182,101,1
913,40.885252952575684,214,111,39,107,163,257,191,106,1
914,40.90782356262207,222,118,39,112,173,281,196,104,1
915,40.93011808395386,240,127,39,101,168,291,181,96,1
916,40.945119857788086,271,137,41,103,173,307,188,97,1
917,40.96771860122681,253,108,38,77,121,226,150,87,1
918,40.99014353752136,239,100,34,75,119,226,145,80,1
919,41.00511860847473,261,97,36,78,120,249,150,85,1
920,41.027992486953735,223,91,31,70,104,231,121,66,1
921,41.05014753341675,195,78,30,71,111,256,117,74,1
922,41.06518077850342,210,80,30,76,122,266,128,85,1
923,41.087971925735474,213,89,30,76,122,264,123,83,1
924,41.11057639122009,191,80,30,67,109,221,107,80,1
925,41.12575316429138,180,69,34,65,107,209,117,87,1
926,41.14776420593262,211,74,33,57,100,213,138,88,1
927,41.17012119293213,197,70,35,52,90,208,135,86,1
928,41.18555188179016,199,62,35,53,92,210,133,90,1
929,41.2078320980072,185,66,33,50,86,205,137,89,1
930,41.23015356063843,202,76,33,53,94,225,144,97,1
931,41.24489712715149,158,66,33,49,78,168,116,88,1
932,41.268256425857544,156,71,35,47,72,164,127,89,1
933,41.290361166000366,164,72,38,60,96,216,150,95,1
934,41.30470418930054,168,69,37,61,98,214,147,93,1
935,41.32714533805847,182,60,38,65,99,219,133,79,1
936,41.358192443847656,180,64,38,75,116,242,144,82,1
937,41.36471128463745,173,57,36,75,117,239,124,70,1
938,41.38717865943909,184,71,39,77,112,221,108,73,1
939,41.410401821136475,178,73,40,81,117,233,111,83,1
940,41.42492175102234,152,71,41,85,135,260,134,91,1
941,41.447675943374634,162,70,40,76,120,236,132,87,1
942,41.47021007537842,202,75,39,79,123,236,143,94,1
943,41.48495411872864,196,60,34,66,106,205,132,84,1
944,41.507967948913574,198,57,35,75,121,226,141,76,1
945,41.530694246292114,190,64,29,74,107,189,122,62,1
946,41.54454684257507,185,64,27,78,110,188,109,64,1
947,41.567861557006836,154,58,30,77,112,190,100,52,1
948,41.59032583236694,144,71,30,78,123,232,111,57,1
949,41.6044499874115,148,74,28,66,102,202,106,62,1
950,41.62781262397766,153,67,33,59,88,181,100,63,1
951,41.650537967681885,145,70,33,56,90,186,104,65,1
952,41.66443181037903,153,71,30,56,87,186,100,64,1
953,41.68833565711975,167,67,31,56,79,140,105,61,1
954,41.710615396499634,192,77,35,72,106,169,102,70,1
955,41.72510576248169,194,76,32,71,108,180,106,72,1
956,41.747294902801514,191,71,34,68,106,186,112,74,1
957,41.770142555236816,176,71,34,67,105,189,112,76,1
958,41.7843599319458,202,63,36,67,105,204,103,78,1
959,41.80801463127136,166,47,37,54,84,183,112,78,1
960,41.83019518852234,164,44,38,52,76,168,107,75,1
961,42.25027823448181,250,82,30,40,68,163,118,68,1
962,42.27188777923584,243,80,26,40,68,149,123,83,1
963,42.2887749671936,217,69,26,40,66,139,105,83,1
964,42.31196188926697,235,72,26,43,69,136,106,86,1
965,42.7143452167511,159,60,28,48,74,178,98,68,1
966,42.731274127960205,146,53,26,49,72,151,91,64,1
967,42.75235724449158,129,56,27,48,73,155,94,60,1
968,42.774548053741455,126,57,31,51,73,161,99,60,1
969,42.79030776023865,161,58,33,59,87,202,129,72,1
970,42.81208515167236,184,59,33,66,99,212,138,79,1
971,42.83433771133423,171,58,36,61,92,216,143,85,1
972,42.851412773132324,184,59,36,68,101,229,149,93,1
973,42.872010231018066,195,61,33,69,104,225,147,91,1
974,42.894660234451294,182,61,36,68,101,212,132,79,1
975,42.91132950782776,180,58,35,62,88,187,126,75,1
976,42.93203949928284,188,59,36,62,85,179,124,72,1
977,42.95437836647034,176,58,36,55,75,160,119,69,1
978,42.97250938415527,179,54,41,54,77,171,125,75,1
979,42.99221324920654,161,54,38,52,75,149,112,75,1
980,43.02213263511658,163,60,39,52,76,151,102,72,1
981,43.03126645088196,154,59,34,50,74,135,91,73,1
982,43.05212378501892,162,61,38,58,79,140,87,69,1
983,43.07445168495178,197,74,36,57,76,141,90,74,1
984,43.091424226760864,196,74,35,53,67,130,86,69,1
985,43.11218619346619,179,66,33,54,68,133,95,71,1
986,43.13447690010071,188,71,41,76,104,169,106,74,1
987,43.15117788314819,197,70,41,73,109,180,120,80,1
988,43.17200326919556,166,67,41,76,111,176,116,76,1
989,43.19454216957092,195,74,41,74,109,172,116,78,1
990,43.21237325668335,201,76,42,74,110,174,108,76,1
991,43.2320077419281,188,72,34,61,101,203,124,74,1
992,43.254984617233276,189,71,29,57,94,202,115,67,1
993,43.271947145462036,170,66,27,50,86,200,110,60,1
994,43.292585134506226,134,58,28,56,90,203,112,65,1
995,43.31442189216614,144,61,29,57,93,225,137,82,1
996,44.29764986038208,184,80,38,65,92,187,140,101,1
997,44.31205487251282,201,86,35,61,94,177,129,87,1
998,44.33469104766846,195,86,33,61,96,180,130,86,1
999,44.35711145401001,222,91,36,74,122,241,159,91,1
1000,44.372100591659546,225,87,36,77,124,236,159,93,1
1001,44.39442563056946,223,84,32,75,126,238,152,94,1
1002,44.4172945022583,192,65,30,64,106,216,136,84,1
1003,44.4321448802948,204,69,32,70,115,250,158,87,1
1004,44.45569729804993,203,61,29,57,88,196,132,90,1
1005,44.47753381729126,205,63,29,53,88,220,125,82,1
1006,44.492594718933105,199,61,30,73,123,258,140,87,1
1007,44.514970779418945,193,70,31,76,126,268,138,89,1
1008,47.18502235412598,46,37,55,57,43,44,38,33,2
1009,47.19959902763367,46,38,55,57,44,42,39,35,2
1010,47.22200608253479,60,52,64,65,50,47,56,40,2
1011,47.24458408355713,60,53,66,68,52,47,66,48,2
1012,47.25902771949768,51,49,53,60,45,42,63,48,2
1013,47.281991481781006,51,51,52,60,47,41,64,49,2
1014,47.304678440093994,60,53,54,62,50,69,86,50,2
1015,47.31998038291931,56,42,41,57,52,75,87,51,2
1016,47.34249424934387,56,34,36,51,54,92,88,47,2
1017,47.36524510383606,60,36,39,53,58,96,95,50,2
1018,47.37980508804321,60,36,37,53,57,97,95,50,2
1019,47.402087926864624,53,37,38,53,54,82,76,50,2
1020,47.42477869987488,50,40,51,63,53,76,71,47,2
1021,47.439404010772705,53,45,59,69,52,63,69,49,2
1022,47.46257734298706,59,43,61,69,54,82,81,49,2
1023,47.48475384712219,63,44,63,69,54,83,79,48,2
1024,47.50783705711365,62,42,61,69,54,85,81,46,2
1025,47.52213954925537,60,38,55,59,49,85,76,45,2
1026,47.54480004310608,60,39,54,64,60,93,82,43,2
1027,47.568981647491455,53,39,52,63,62,100,66,45,2
1028,47.582685470581055,49,37,49,62,62,106,71,55,2
1029,47.60528874397278,52,42,51,62,64,107,68,55,2
1030,47.627761125564575,49,43,47,58,64,109,70,58,2
1031,47.64212512969971,47,38,40,43,50,96,54,60,2
1032,47.66470241546631,45,37,37,40,44,77,55,56,2
1033,47.68780732154846,49,41,43,46,47,67,49,44,2
1034,47.70211458206177,51,45,43,50,47,69,55,46,2
1035,47.7246835231781,49,43,42,50,48,66,52,42,2
1036,47.74782109260559,50,45,47,51,47,75,55,38,2
1037,47.76257038116455,53,49,49,52,41,67,52,36,2
1038,47.784539222717285,49,46,47,49,35,65,52,41,2
1039,47.80804657936096,43,38,43,43,32,58,44,37,2
1040,47.821901082992554,45,37,43,41,29,55,43,37,2
1041,47.844582080841064,41,33,36,38,28,40,36,35,2
1042,47.86787033081055,37,27,32,39,33,40,37,37,2
1043,47.88207650184631,39,27,38,46,35,39,30,31,2
1044,47.90495181083679,39,30,42,51,38,36,30,33,2
1045,47.927992820739746,40,34,47,54,40,39,32,34,2
1046,47.9425208568573,44,36,52,72,42,37,35,33,2
1047,47.96474266052246,45,40,58,73,43,37,37,35,2
1048,47.98782253265381,45,39,53,70,45,43,47,39,2
1049,48.00216603279114,48,39,51,66,42,44,50,39,2
1050,48.024590730667114,48,40,50,64,39,40,50,40,2
1051,48.04778027534485,43,39,46,44,37,42,50,41,2
1052,48.0621018409729,41,36,41,42,32,41,48,38,2
1053,48.08453941345215,39,36,43,42,28,34,39,37,2
1054,48.10784935951233,34,32,40,41,28,32,34,36,2
1055,48.12293839454651,34,30,41,48,36,35,36,38,2
1056,48.14515447616577,31,29,41,48,38,34,37,37,2
1057,48.16793155670166,38,38,55,61,47,40,40,38,2
1058,48.18240189552307,43,41,61,66,51,45,44,36,2
1059,48.204755544662476,46,45,67,74,56,52,47,36,2
1060,48.22787523269653,49,50,73,81,55,55,46,33,2
1061,48.2423894405365,54,52,73,80,55,57,54,38,2
1062,48.26412487030029,50,45,61,70,47,52,51,36,2
1063,48.28820013999939,44,41,52,60,41,48,48,35,2
1064,48.30261158943176,44,38,46,51,34,42,49,36,2
1065,48.324666023254395,43,32,35,35,30,39,48,35,2
1066,48.3497257232666,38,28,35,35,29,39,41,32,2
1067,48.3622031211853,52,28,36,39,33,46,47,39,2
1068,48.384848833084106,59,31,39,49,57,99,82,48,2
1069,48.407859563827515,73,38,39,48,59,120,88,49,2
1070,48.43046045303345,105,42,46,77,111,227,127,56,2
1071,48.44465613365173,159,60,50,89,129,255,148,77,2
1072,48.469326972961426,178,65,51,92,136,279,185,95,2
1073,48.497865200042725,218,76,58,106,152,288,186,101,2
1074,48.50497007369995,253,104,61,120,176,339,207,120,2
1075,48.5279438495636,288,131,71,119,170,307,220,136,2
1076,48.55036211013794,287,136,75,112,162,296,218,128,2
1077,48.56460452079773,293,164,78,122,173,321,223,122,2
1078,48.58799195289612,328,179,75,112,160,329,217,125,2
1079,48.611247539520264,358,179,75,114,158,299,208,118,2
1080,48.62486433982849,391,246,61,118,175,375,223,113,2
1081,48.64787244796753,472,300,63,145,212,421,246,137,2
1082,48.67033791542053,560,330,69,156,230,432,276,168,2
1083,48.68460726737976,561,341,67,160,238,435,286,165,2
1084,48.70814061164856,580,354,75,162,248,450,311,172,2
1085,48.7299599647522,574,317,76,161,240,425,333,180,2
1086,48.744224548339844,517,295,72,173,272,481,340,172,2
1087,48.767829179763794,434,255,64,163,264,474,317,153,2
1088,48.790417432785034,500,313,66,167,271,476,322,174,2
1089,48.80463910102844,496,313,53,165,265,486,345,211,2
1090,48.82888841629028,476,315,52,156,261,471,305,207,2
1091,48.8511323928833,480,296,52,120,196,373,287,200,2
1092,48.86505150794983,497,304,49,115,188,373,286,208,2
1093,48.88780999183655,394,233,45,102,169,362,277,195,2
1094,49.93069553375244,228,131,47,128,197,332,272,111,1
1095,49.961511850357056,239,148,53,143,214,347,284,117,1
1096,49.967082262039185,191,124,46,92,124,208,193,109,1
1097,49.99053764343262,174,119,46,87,119,194,180,90,1
1098,50.013505697250366,217,133,47,98,144,237,187,99,1
1099,50.02745008468628,232,135,48,99,147,244,171,99,1
1100,50.05052828788757,221,122,41,81,132,240,155,103,1
1101,50.07279133796692,221,124,38,86,146,252,158,101,1
1102,50.08659267425537,238,125,37,88,148,258,172,110,1
1103,50.11045527458191,205,110,35,72,121,217,147,102,1
1104,50.13298487663269,175,103,31,68,116,207,145,101,1
1105,50.146960973739624,171,80,40,102,148,247,168,93,1
1106,50.1707444190979,206,64,39,98,136,233,164,88,1
1107,50.19317674636841,211,67,45,103,140,245,165,91,1
1108,50.20741391181946,207,66,45,101,138,251,168,93,1
1109,50.230345249176025,208,85,47,112,157,287,185,100,1
1110,50.25321674346924,219,84,40,79,121,249,169,97,1
1111,50.26739859580994,218,88,47,107,165,317,171,101,1
1112,50.29060387611389,201,80,40,102,162,319,154,91,1
1113,50.31279706954956,250,92,44,102,160,316,145,88,1
1114,50.32777976989746,263,75,44,93,144,288,113,74,1
1115,50.34980368614197,276,75,44,102,152,292,122,84,1
1116,50.372835874557495,250,80,40,92,137,253,129,86,1
1117,50.39659023284912,254,82,44,94,139,238,139,94,1
1118,50.41147184371948,216,72,38,94,142,237,137,92,1
1119,50.43296575546265,205,81,39,97,144,238,149,95,1
1120,50.455599784851074,178,84,36,83,134,235,123,85,1
1121,50.47157263755798,180,85,34,62,100,187,112,82,1
1122,50.4931480884552,176,82,31,58,95,190,104,72,1
1123,50.515403747558594,163,78,29,60,94,182,104,72,1
1124,50.53026342391968,150,73,31,59,92,181,98,78,1
1125,50.55275893211365,152,96,34,70,116,175,113,90,1
1126,50.575724363327026,149,87,32,66,110,169,110,89,1
1127,50.590433835983276,143,90,32,67,109,167,112,86,1
1128,50.613171100616455,148,91,38,77,123,203,142,100,1
1129,51.11577367782593,139,70,33,51,98,233,146,77,1
1130,51.129812240600586,159,67,38,73,106,222,151,80,1
1131,51.15305733680725,162,63,42,84,97,162,122,80,1
1132,51.17528414726257,159,64,41,85,99,170,119,80,1
1133,51.3557870388031,116,56,33,63,107,233,152,71,1
1134,51.378098011016846,119,53,31,64,108,238,155,77,1
1135,51.39276099205017,136,55,29,59,98,214,138,74,1
1136,51.41592311859131,130,53,27,49,79,181,108,67,1
1137,51.43778109550476,122,53,34,46,68,150,94,69,1
1138,51.452958822250366,116,51,38,56,74,151,100,84,1
1139,51.47545051574707,114,53,38,54,74,150,108,81,1
1140,51.49763536453247,101,50,38,59,77,161,108,77,1
1141,51.51346230506897,114,52,38,67,96,203,116,88,1
1142,51.5365686416626,106,53,33,82,134,264,144,100,1
1143,51.557881355285645,134,49,32,83,137,275,142,89,1
1144,51.57279872894287,135,51,33,83,140,288,132,87,1
1145,51.59561204910278,133,48,37,89,145,284,134,94,1
1146,51.61774682998657,140,50,36,84,137,265,141,96,1
1147,51.633118867874146,139,48,38,66,94,186,103,78,1
1148,51.65573811531067,116,46,37,62,88,173,98,77,1
1149,52.217291593551636,130,49,31,53,86,170,111,70,2
1150,52.24008345603943,144,58,33,69,110,237,147,78,2
1151,52.257230281829834,122,52,31,69,114,245,155,74,2
1152,52.27742576599121,111,53,29,60,104,216,145,66,2
1153,52.616755962371826,93,48,33,56,76,150,77,60,2
1154,52.63737368583679,101,48,34,59,80,150,77,63,2
1155,52.65961670875549,96,41,32,63,89,155,85,60,2
1156,52.67886662483215,105,41,33,66,98,170,96,60,2
1157,52.780202865600586,84,38,36,41,74,200,114,69,2
1158,52.797337770462036,85,36,31,40,73,191,115,70,2
1159,52.81719374656677,86,38,32,40,75,188,113,69,2
1160,52.83969211578369,86,40,32,40,74,187,114,69,2
1161,52.85757803916931,81,42,38,49,57,113,80,50,2
1162,52.877649784088135,77,41,38,51,56,104,78,51,2
1163,52.89975166320801,75,40,36,48,58,114,79,48,2
1164,52.916635513305664,78,40,35,52,59,119,82,56,2
1165,52.937557220458984,77,37,35,53,59,123,81,59,2
1166,52.95982789993286,63,34,32,40,51,106,59,54,2
1167,52.97712588310242,82,33,28,44,65,118,64,72,2
1168,52.997150182724,81,34,31,45,60,104,57,72,2
1169,53.344380617141724,81,40,32,39,58,102,86,59,2
1170,53.35722017288208,79,41,31,39,60,105,82,59,2
1171,53.38020181655884,101,53,32,47,74,146,98,61,2
1172,53.40185546875,96,54,33,43,75,161,99,45,2
1173,53.4167275428772,91,50,31,43,73,157,93,38,2
1174,53.440030336380005,93,50,33,43,74,160,94,40,2
1175,53.46250081062317,98,50,34,46,79,169,96,45,2
1176,53.476712226867676,76,41,32,38,63,131,74,46,2
1177,53.50042700767517,85,52,30,53,88,144,101,78,2
1178,53.52213478088379,83,57,36,54,88,152,102,79,2
1179,53.53716444969177,81,58,38,55,89,153,101,79,2
1180,53.560126304626465,75,56,37,53,83,140,99,78,2
1181,53.582292556762695,79,55,37,59,90,145,104,80,2
1182,53.5972318649292,75,43,36,48,60,117,75,63,2
1183,53.61973333358765,74,41,31,47,59,108,74,61,2
1184,53.643574953079224,72,39,27,46,59,105,71,62,2
1185,53.65701937675476,71,39,26,45,58,104,69,64,2
1186,53.680992126464844,83,36,30,35,63,127,69,58,2
1187,53.70215582847595,74,34,32,36,64,145,83,52,2
1188,53.71740245819092,74,30,30,36,62,145,84,52,2
1189,53.74010419845581,72,29,31,35,60,146,88,52,2
1190,53.76259446144104,73,29,35,35,63,150,89,50,2
1191,53.77788782119751,58,33,32,40,51,130,83,50,2
1192,53.799744844436646,74,35,29,33,46,106,59,47,2
1193,53.82204842567444,72,38,32,37,45,105,58,46,2
1194,53.83915686607361,77,38,33,39,47,105,54,44,2
1195,53.859272956848145,77,37,29,39,43,102,51,42,2
1196,53.881874322891235,100,37,33,38,44,98,62,52,2
1197,53.898974895477295,95,36,36,40,41,82,62,49,2
1198,53.92037892341614,105,36,35,41,49,104,69,59,2
1199,53.94232940673828,105,35,35,41,46,97,68,58,2
1200,53.959203481674194,107,37,35,41,46,98,67,58,2
1201,53.97989463806152,81,35,34,35,41,93,54,49,2
1202,54.0021185874939,80,42,32,44,59,135,74,53,2
1203,54.019033432006836,74,46,32,42,57,119,68,45,2
1204,54.040016651153564,79,48,31,41,59,128,72,48,2
1205,54.06261682510376,105,54,32,51,75,156,105,69,2
1206,54.07965421676636,106,55,28,50,76,158,105,69,2
1207,54.10004210472107,97,48,30,45,63,121,91,64,2
1208,54.12234044075012,102,43,29,44,61,118,93,65,2
1209,54.139944553375244,104,42,27,46,63,117,92,68,2
1210,54.15937876701355,78,34,28,38,46,78,55,46,2
1211,54.18238663673401,76,32,26,40,47,77,57,46,2
1212,54.2046332359314,94,34,24,39,47,75,58,53,2
1213,54.219613790512085,84,35,22,41,49,85,57,55,2
1214,54.24314999580383,79,34,27,45,54,87,62,51,2
1215,54.26505517959595,83,35,27,42,53,83,60,51,2
1216,54.28004264831543,88,43,27,44,66,143,84,57,2
1217,54.3021674156189,85,47,28,42,64,147,89,57,2
1218,54.324766874313354,86,50,34,44,66,147,90,52,2
1219,54.34018015861511,84,52,35,41,66,170,98,57,2
1220,54.36228394508362,79,51,35,43,66,172,99,59,2
1221,54.384765625,80,45,36,45,53,127,78,53,2
1222,54.39982080459595,91,43,39,48,60,174,81,56,2
1223,54.42232322692871,91,37,34,45,59,184,88,59,2
1224,54.444889545440674,95,38,32,42,57,160,79,58,2
1225,54.45970869064331,95,40,34,41,55,160,75,60,2
1226,54.482401847839355,105,46,47,49,62,175,79,65,2
1227,54.50478196144104,89,45,46,48,56,127,70,55,2
1228,54.51975631713867,94,45,46,49,56,125,75,60,2
1229,54.542375564575195,86,43,46,50,53,128,75,64,2
1230,54.56488490104675,104,49,46,50,65,147,88,64,2
1231,54.58030104637146,92,45,30,38,58,125,87,60,2
1232,54.602116107940674,86,45,30,34,57,123,84,61,2
1233,54.62459897994995,95,48,33,37,59,114,85,67,2
1234,54.63975143432617,103,50,34,36,58,112,80,67,2
1235,54.66244196891785,94,48,33,36,51,104,79,71,2
1236,54.684996604919434,98,50,33,35,48,104,79,72,2
1237,54.69963622093201,100,49,32,37,49,104,78,75,2
1238,54.72257351875305,86,47,30,31,46,112,68,66,2
1239,54.744686126708984,84,46,27,28,44,105,67,58,2
1240,54.7598443031311,75,42,29,34,40,81,54,51,2
1241,54.7821991443634,68,38,33,43,52,88,52,48,2
1242,54.80481576919556,72,36,36,47,60,94,62,49,2
1243,54.81968855857849,70,33,35,46,55,70,54,47,2
1244,54.84227395057678,60,30,37,47,56,72,57,47,2
1245,54.864731788635254,58,29,33,45,56,76,57,46,2
1246,54.879921436309814,74,35,31,48,63,109,92,60,2
1247,54.90221285820007,65,37,25,42,56,105,88,55,2
1248,54.924713373184204,64,37,26,42,55,104,89,53,2
1249,54.93984007835388,63,40,25,43,56,105,88,52,2
1250,54.96226954460144,63,42,25,41,56,103,87,53,2
1251,54.98473572731018,46,35,24,32,38,66,51,43,2
1252,54.99991512298584,42,30,24,35,37,62,47,42,2
1253,55.02332901954651,42,30,25,36,36,60,44,44,2
1254,55.045175075531006,48,33,26,36,39,58,51,47,2
1255,55.05985426902771,61,45,27,35,40,64,49,52,2
1256,55.082154273986816,56,47,28,31,35,51,44,44,2
1257,55.10484433174133,60,49,29,29,36,60,48,44,2
1258,55.12727975845337,59,50,27,26,36,62,48,44,2
1259,55.14227628707886,65,49,25,31,39,75,49,48,2
1260,55.16473841667175,56,38,25,36,37,70,50,43,2
1261,55.187257289886475,60,35,24,41,43,83,54,46,2
1262,55.20222234725952,57,34,27,42,41,76,48,45,2
1263,55.22475600242615,60,36,28,42,41,78,57,53,2
1264,55.24736523628235,69,35,29,46,55,96,62,55,2
1265,55.262561559677124,68,34,27,44,57,100,64,56,2
1266,55.28452444076538,73,34,29,49,62,98,76,72,2
1267,55.30722141265869,74,36,26,49,62,100,77,73,2
1268,55.3221230506897,79,39,26,51,65,108,82,77,2
1269,55.344979763031006,84,39,31,57,82,146,101,87,2
1270,55.367507457733154,89,43,34,60,86,155,110,94,2
1271,55.38226866722107,92,42,31,55,84,165,109,84,2
1272,55.40472054481506,102,42,34,57,87,178,121,95,2
1273,55.42715764045715,107,39,36,59,91,190,126,95,2
1274,55.442113637924194,95,39,35,49,69,156,109,85,2
1275,55.46485996246338,97,34,32,53,82,171,120,91,2
1276,55.487223625183105,89,33,31,51,79,161,116,89,2
1277,55.5022668838501,79,30,30,51,78,147,106,77,2
1278,55.52502202987671,74,28,28,49,76,135,97,73,2
1279,55.547120809555054,77,28,25,49,78,137,95,71,2
1280,55.56327533721924,74,29,27,41,67,113,80,53,2
1281,55.584980964660645,71,31,28,42,70,123,81,54,2
1282,55.60716199874878,71,32,28,43,70,128,81,54,2
1283,55.62223148345947,94,41,29,49,86,139,85,53,2
1284,55.727779388427734,106,46,38,55,78,162,108,73,2
1285,55.742093563079834,104,51,39,56,72,149,103,68,2
1286,55.76472210884094,105,51,40,56,70,146,102,66,2
1287,55.787320375442505,108,53,36,56,74,163,109,68,2
1288,55.80233287811279,82,50,34,50,69,165,109,61,2
1289,55.82478070259094,81,48,31,50,68,139,98,56,2
1290,55.847933769226074,71,41,29,49,75,164,108,56,2
1291,55.86233401298523,79,40,27,48,76,176,117,59,2
1292,55.88478922843933,80,41,27,46,75,179,113,55,2
1293,55.907498359680176,83,39,24,40,65,164,101,52,2
1294,55.92224168777466,93,44,31,44,70,170,105,56,2
1295,55.94467377662659,89,45,30,37,58,143,91,63,2
1296,55.967196226119995,95,61,40,48,62,138,85,68,2
1297,55.98232936859131,94,61,39,48,58,124,82,69,2
1298,56.00418186187744,94,66,43,50,67,157,92,70,2
1299,56.027836322784424,88,63,43,50,62,150,90,68,2
1300,56.04239559173584,86,66,43,51,61,151,91,64,2
1301,56.06478452682495,87,54,37,49,75,211,108,67,2
1302,56.087236404418945,84,51,38,53,84,222,112,70,2
1303,56.267404556274414,103,47,31,67,96,156,110,106,2
1304,56.28994369506836,104,47,35,61,86,149,103,96,2
1305,56.30464172363281,104,46,35,51,72,122,85,69,2
1306,56.32716369628906,114,55,46,78,105,146,93,71,2
1307,56.349853515625,110,56,47,80,105,137,92,73,2
1308,56.36479878425598,111,56,44,78,101,137,94,69,2
1309,56.387173652648926,125,53,45,81,110,160,95,69,2
1310,56.410396099090576,120,53,47,81,111,166,104,80,2
1311,56.425150632858276,153,48,38,81,122,224,129,80,2
1312,56.44776892662048,158,49,39,82,126,249,129,77,2
1313,56.46980881690979,159,50,41,80,128,251,122,74,2
1314,56.48478651046753,163,54,47,90,144,289,139,82,2
1315,56.50733232498169,164,52,46,89,144,288,137,77,2
1316,56.5299232006073,126,50,47,73,116,236,115,73,2
1317,56.54463744163513,146,56,55,75,119,243,132,83,2
1318,56.567163705825806,148,58,56,78,116,244,140,86,2
1319,56.97997283935547,184,101,42,107,179,321,198,128,1
1320,57.00223708152771,162,96,42,105,174,315,179,117,1
1321,57.03990077972412,134,72,40,79,127,233,135,92,1
1322,57.05463242530823,126,80,46,84,128,228,153,98,1
1323,57.0699098110199,116,69,47,81,121,219,149,92,1
1324,57.08650875091553,157,68,49,83,131,263,159,97,1
1325,57.107280015945435,180,84,54,86,129,267,169,116,1
1326,57.12330961227417,180,91,59,89,134,264,159,116,1
1327,57.13721680641174,183,84,60,83,133,278,149,111,1
1328,57.15433216094971,203,87,65,88,138,283,161,130,1
1329,57.176905155181885,185,93,60,75,117,228,148,117,1
1330,57.18971014022827,176,84,60,78,118,217,158,100,1
1331,57.212645292282104,173,79,58,94,141,271,169,115,1
1332,57.227262020111084,172,76,54,95,138,253,158,112,1
1333,57.249520778656006,161,71,48,96,144,272,165,95,1
1334,57.27259802818298,139,61,52,100,149,278,180,105,1
1335,57.28676915168762,121,59,55,105,154,293,171,112,1
1336,57.309934854507446,138,54,52,81,113,212,153,106,1
1337,57.3329873085022,151,52,53,91,137,243,170,129,1
1338,57.34721612930298,155,56,50,86,132,233,157,125,1
1339,57.385156869888306,185,68,53,82,126,223,145,116,1
1340,57.399763107299805,197,77,45,81,121,211,138,113,1
1341,57.41478657722473,185,80,46,78,120,207,136,106,1
1342,57.43766164779663,208,86,51,73,95,229,136,93,1
1343,57.452789068222046,203,87,56,74,88,211,131,100,1
1344,57.46722674369812,182,79,54,74,84,206,122,103,1
1345,57.489718198776245,188,72,59,67,86,225,137,113,1
1346,57.51222372055054,194,71,57,67,87,235,139,108,1
1347,57.54222393035889,154,66,51,54,75,173,117,90,1
1348,57.54966068267822,149,59,46,56,81,180,119,82,1
1349,57.57318329811096,143,55,44,71,104,207,131,80,1
1350,57.586827516555786,142,57,40,68,105,213,123,59,1
1351,57.61727809906006,126,54,42,82,127,237,143,60,1
1352,57.64020872116089,142,55,41,84,130,246,155,72,1
1353,57.66509652137756,134,54,42,81,125,236,151,71,1
1354,57.69224548339844,141,56,38,66,111,244,145,73,1
1355,57.7148175239563,135,53,38,68,112,234,141,75,1
1356,57.7383930683136,133,50,34,55,88,204,127,76,1
1357,57.76677393913269,117,46,36,55,83,192,116,67,1
1358,57.790000915527344,135,50,35,69,101,217,120,68,1
1359,57.81415796279907,144,56,40,78,110,193,115,61,1
1360,57.842329263687134,151,58,44,80,99,159,101,59,1
1361,57.86517095565796,153,59,46,78,104,178,93,57,1
1362,57.88958764076233,159,62,43,77,107,188,94,66,1
1363,57.92417645454407,146,60,47,70,92,157,87,64,1
1364,57.94005584716797,142,60,42,61,79,147,94,65,1
1365,57.96338200569153,134,60,36,52,74,161,101,67,1
1366,57.99285292625427,133,61,35,52,72,152,101,61,1
1367,58.015092849731445,142,60,38,55,77,167,105,59,1
1368,58.037960052490234,141,59,37,62,90,183,104,63,1
1369,58.0443651676178,122,52,38,57,84,174,91,59,1
1370,58.05230259895325,109,46,43,63,93,184,107,56,1
1371,58.06167244911194,114,51,43,62,93,182,111,61,1
1372,58.067363262176514,87,47,41,59,88,161,104,52,1
1373,58.07575035095215,98,49,42,63,93,174,117,57,1
1374,58.0823540687561,104,49,47,68,98,185,119,56,1
1375,58.08987069129944,96,50,45,72,97,201,111,73,1
1376,58.112810373306274,88,47,47,74,93,189,101,72,1
1377,58.13566827774048,97,49,49,81,101,196,105,75,1
1378,58.14932441711426,87,46,47,76,87,173,96,73,1
1379,58.1724579334259,79,45,43,75,89,176,94,79,1
1380,58.195534229278564,101,46,39,65,83,147,100,70,1
1381,58.20980668067932,111,45,34,72,107,209,123,77,1
1382,58.232314109802246,105,43,37,67,100,205,122,78,1
1383,58.25715160369873,112,66,45,75,120,262,151,80,1
1384,58.26979851722717,115,69,44,73,118,258,152,74,1
1385,58.29240345954895,98,69,46,71,113,249,139,70,1
1386,58.3158974647522,102,73,49,70,109,232,127,61,1
1387,58.32969403266907,99,74,46,72,110,239,125,60,1
1388,58.367297887802124,99,59,41,56,82,173,85,53,1
1389,58.38230228424072,115,58,43,58,84,176,89,62,1
1390,58.39775896072388,115,54,44,64,91,205,114,93,1
1391,58.42014122009277,109,49,40,53,69,171,111,108,1
1392,58.43479895591736,110,48,41,48,65,155,112,118,1
1393,58.450175285339355,107,49,40,46,64,150,110,125,1
1394,58.472272872924805,92,51,38,53,74,159,112,126,1
1395,58.495527505874634,85,49,34,47,66,121,87,103,1
1396,58.50973105430603,78,46,39,52,71,136,81,92,1
1397,58.53251099586487,74,47,38,53,70,133,77,83,1
1398,58.55466818809509,96,49,39,59,92,180,101,76,1
1399,58.56967306137085,92,46,40,51,83,169,93,73,1
1400,58.592283487319946,97,50,41,51,82,170,97,77,1
1401,58.61480355262756,99,54,40,50,83,163,102,75,1
1402,58.63042235374451,111,56,39,50,85,173,108,73,1
1403,58.652254581451416,93,53,38,40,61,119,85,70,1
1404,58.6752655506134,96,52,39,43,66,128,88,67,1
1405,58.68983244895935,96,52,37,48,80,153,89,65,1
1406,58.71287941932678,93,49,36,45,73,140,78,60,1
1407,58.735135555267334,81,46,40,45,74,147,85,65,1
1408,58.74984073638916,86,54,44,56,79,164,91,63,1
1409,58.77182054519653,74,53,43,55,71,153,82,58,1
1410,58.795300006866455,77,53,44,50,59,126,80,61,1
1411,58.809988498687744,75,55,42,49,58,127,83,57,1
1412,58.83293032646179,85,60,38,52,58,108,69,50,1
1413,58.854658365249634,80,57,40,47,68,112,86,60,1
1414,58.86932182312012,83,58,40,46,73,123,94,76,1
1415,58.892215967178345,78,54,39,46,70,116,90,74,1
1416,58.914910316467285,82,53,40,49,73,121,93,76,1
1417,58.9373996257782,74,46,41,51,80,131,94,73,1
1418,58.95234560966492,75,40,34,44,64,113,72,68,1
1419,58.97468137741089,73,37,34,46,59,113,67,60,1
1420,58.99723172187805,72,40,36,53,69,129,76,64,1
1421,59.01225996017456,72,39,38,52,71,127,72,74,1
1422,59.03473138809204,68,40,38,49,62,120,74,81,1
1423,59.058549642562866,71,38,38,58,79,158,92,97,1
1424,59.072325229644775,73,40,34,54,77,150,90,97,1
1425,59.094759941101074,89,43,31,50,70,143,89,101,1
1426,59.11721849441528,101,45,27,55,82,168,91,98,1
1427,59.132688999176025,103,48,27,52,80,165,88,99,1
1428,59.15474724769592,99,49,29,47,70,145,81,86,1
1429,59.177340507507324,106,47,31,50,70,149,87,86,1
1430,59.192429065704346,98,42,33,49,72,164,101,98,1
1431,59.21509003639221,87,44,35,44,58,136,98,95,1
1432,59.237324953079224,86,43,40,48,66,141,102,95,1
1433,59.25246453285217,84,45,41,44,59,128,97,94,1
1434,59.275041818618774,77,53,47,44,68,134,116,116,1
1435,59.297696352005005,86,61,50,43,63,107,104,109,1
1436,59.31214261054993,106,63,53,43,64,114,104,113,1
1437,59.354862689971924,108,63,53,38,57,106,100,115,1
1438,59.358001470565796,115,64,57,41,71,125,104,119,1
1439,59.3722882270813,116,62,55,44,68,149,94,99,1
1440,59.39564085006714,113,58,53,47,77,162,92,87,1
1441,59.418001651763916,91,52,48,47,75,162,92,78,1
1442,59.43180227279663,86,48,42,45,75,164,92,69,1
1443,59.45560669898987,81,43,35,45,65,152,85,59,1
1444,59.47805094718933,79,42,33,41,57,112,67,52,1
1445,59.49241018295288,66,37,32,40,48,101,66,52,1
1446,59.51561617851257,70,42,35,39,54,116,82,70,1
1447,59.53827786445618,91,45,38,41,60,133,87,73,1
1448,59.55194664001465,85,49,35,38,56,124,85,70,1
1449,59.575149059295654,88,47,31,40,69,143,92,75,1
1450,59.598093032836914,94,52,31,37,76,165,100,80,1
1451,59.61216187477112,92,50,30,36,71,149,86,66,1
1452,59.63566184043884,84,51,32,35,68,142,82,71,1
1453,59.65965127944946,89,50,37,37,68,153,86,85,1
1454,59.67229080200195,92,54,42,36,57,136,75,89,1
1455,59.69738507270813,98,52,46,36,46,100,61,95,1
1456,59.71758985519409,97,51,47,38,45,104,65,95,1
1457,59.732009410858154,100,49,45,43,48,97,63,88,1
1458,59.755677700042725,100,49,42,46,56,97,81,77,1
1459,59.778398752212524,97,42,39,46,58,103,84,66,1
1460,59.792362689971924,81,36,38,45,56,104,87,54,1
1461,59.815659284591675,79,36,38,47,59,103,85,52,1
1462,59.837939500808716,67,35,38,45,64,134,95,57,1
1463,59.86073541641235,65,35,37,40,56,121,77,56,1
1464,59.87509083747864,69,36,33,37,53,121,75,55,1
1465,59.90019607543945,71,39,31,40,53,123,76,53,1
1466,59.92075705528259,82,40,31,47,67,148,92,59,1
1467,59.93562960624695,80,38,31,46,63,121,84,57,1
1468,59.95743942260742,77,36,32,44,64,125,83,55,1
1469,59.98059582710266,76,38,33,44,65,124,81,56,1
1470,59.995502948760986,79,41,31,42,69,142,87,60,1
1471,60.01821446418762,76,45,30,35,51,113,70,53,1
1472,60.0407817363739,75,49,27,31,45,109,67,46,1
1473,60.05548715591431,75,48,28,33,44,99,68,46,1
1474,60.07823204994202,77,49,30,36,50,111,75,47,1
1475,60.101067304611206,75,48,32,38,51,109,80,45,1
1476,60.11626958847046,72,45,31,37,51,110,77,46,1
1477,60.13802528381348,69,44,33,37,50,110,75,45,1
1478,60.15991950035095,69,45,31,37,53,117,78,46,1
1479,60.17591691017151,70,45,30,38,50,102,70,43,1
1480,60.19822430610657,69,41,28,35,45,82,57,45,1
1481,60.220398902893066,74,42,29,44,70,147,86,48,1
1482,60.23512578010559,74,41,28,46,73,149,90,49,1
1483,60.258187770843506,79,46,33,51,77,153,94,51,1
1484,60.28058981895447,83,45,33,48,76,164,101,56,1
1485,60.294856548309326,84,46,37,51,77,163,103,58,1
1486,60.31798458099365,76,41,36,40,57,105,81,55,1
1487,60.34088134765625,78,43,37,39,55,114,79,55,1
1488,60.35501050949097,88,49,37,44,71,165,109,63,1
1489,60.37855267524719,73,50,38,44,69,154,103,58,1
1490,60.40047478675842,86,53,35,42,69,152,98,52,1
1491,60.414722204208374,85,55,33,42,69,155,100,53,1
1492,60.4379301071167,88,57,31,43,72,156,108,58,1
1493,60.460925340652466,74,48,32,35,45,86,73,50,1
1494,60.474703550338745,72,46,33,37,45,84,74,51,1
1495,60.49796676635742,59,42,35,40,47,85,74,50,1
1496,60.521363258361816,73,44,36,43,48,78,73,54,1
1497,60.53449535369873,71,39,37,45,48,66,58,55,1
1498,60.55793309211731,70,37,34,47,57,84,59,52,1
1499,60.58089065551758,70,37,33,45,55,84,54,52,1
1500,60.59480667114258,64,39,34,43,52,82,54,51,1
1501,60.618321657180786,64,39,36,42,52,94,54,51,1
1502,60.64077830314636,67,49,37,44,72,158,91,57,1
1503,60.6548433303833,67,49,39,45,66,154,89,55,1
1504,60.67800736427307,67,49,39,47,71,158,92,56,1
1505,60.70081806182861,73,49,37,46,74,169,102,63,1
1506,60.71476125717163,61,46,38,49,73,165,102,59,1
1507,60.73800086975098,58,34,36,44,49,100,68,45,1
1508,60.76130175590515,65,34,34,40,49,100,68,45,1
1509,60.78299689292908,64,33,32,39,47,99,68,45,1
1510,60.79791736602783,59,35,33,41,43,84,57,45,1
1511,60.82056713104248,57,36,32,40,44,80,53,47,1
1512,60.84441304206848,71,38,33,41,45,97,55,51,1
1513,60.85797834396362,67,39,35,40,42,90,55,54,1
1514,60.88075613975525,73,38,37,39,40,91,60,58,1
1515,60.90319204330444,73,37,38,41,40,86,54,50,1
1516,60.91790795326233,80,36,37,39,41,91,62,51,1
1517,60.9408917427063,65,37,35,39,41,71,62,52,1
1518,60.96295738220215,96,41,33,54,70,128,81,51,1
1519,60.97839903831482,94,42,32,56,70,127,76,44,1
1520,61.00061559677124,96,39,28,51,70,130,77,44,1
1521,61.02297377586365,94,39,31,50,69,129,78,46,1
1522,61.03826856613159,96,35,34,50,73,148,83,45,1
1523,61.0606849193573,74,36,34,42,55,118,82,58,1
1524,61.15789175033569,67,43,36,43,57,105,81,49,1
1525,61.18063497543335,78,49,39,45,54,107,87,60,1
1526,61.20272088050842,79,49,39,47,58,123,87,59,1
1527,61.21705174446106,79,46,39,45,49,113,80,60,1
1528,61.240007400512695,85,49,43,49,53,130,84,59,1
1529,61.26371121406555,80,46,41,49,48,124,72,60,1
1530,61.27731132507324,62,41,38,47,49,127,62,47,1
1531,61.56255340576172,86,48,36,43,63,143,87,63,1
1532,61.577290773391724,87,47,39,47,63,134,75,52,1
1533,61.60056734085083,81,36,38,46,55,119,66,48,1
1534,61.622846841812134,80,33,38,56,66,129,67,48,1
1535,61.63775634765625,81,33,35,57,65,116,65,51,1
1536,61.660515785217285,82,33,36,60,63,107,59,50,1
1537,61.683093309402466,86,38,45,65,63,99,56,49,1
1538,61.696810483932495,88,38,42,60,64,102,57,52,1
1539,61.72048091888428,106,43,44,56,60,102,69,56,1
1540,61.74315667152405,107,48,48,56,58,106,68,54,1
1541,61.76582956314087,108,50,50,54,59,106,71,54,1
1542,61.78111028671265,103,46,38,44,58,112,73,52,1
1543,61.804771184921265,103,44,40,48,60,116,82,58,1
1544,61.82554650306702,81,44,43,54,67,134,92,63,1
1545,61.840590953826904,72,38,41,54,67,125,92,64,1
1546,61.862555742263794,75,36,37,53,70,134,94,65,1
1547,61.893104553222656,75,37,39,53,69,129,91,65,1
1548,61.90051460266113,63,40,42,54,67,123,94,62,1
1549,61.92329430580139,76,39,38,48,61,117,93,66,1
1550,61.946027517318726,81,42,36,46,61,125,93,65,1
1551,61.960670948028564,81,45,34,45,54,117,89,64,1
1552,61.983561277389526,83,46,33,45,53,119,90,66,1
1553,62.162758350372314,60,37,33,44,53,125,71,50,1
1554,62.18548250198364,63,41,35,49,58,133,74,46,1
1555,62.199856996536255,59,37,38,53,56,100,74,57,1
1556,62.22310996055603,62,34,37,50,57,101,75,58,1
1557,62.245492458343506,73,33,34,46,58,102,76,55,1
1558,62.26848316192627,74,32,33,42,48,83,65,58,1
1559,62.284406900405884,77,33,33,39,45,81,65,62,1
1560,62.30486488342285,91,34,29,35,48,92,68,63,1
1561,62.32760453224182,87,35,30,36,46,93,69,64,1
1562,62.344496965408325,81,35,31,36,41,88,66,64,1
1563,62.36496043205261,80,37,34,37,42,94,74,60,1
1564,62.38732600212097,77,33,33,35,39,85,73,55,1
1565,62.40516781806946,57,31,35,36,32,63,62,39,1
1566,62.42489814758301,68,33,34,35,34,69,68,41,1
1567,62.44743084907532,77,34,35,39,40,86,72,41,1
1568,62.465646266937256,78,32,34,38,37,77,59,40,1
1569,62.48538136482239,80,38,35,39,40,80,58,41,1
1570,62.50727653503418,77,35,31,35,38,82,56,41,1
1571,62.52418041229248,70,37,34,36,40,81,50,40,1
1572,62.544843435287476,75,37,33,39,61,135,73,38,1
1573,62.568357706069946,80,38,32,43,73,166,88,43,1
1574,62.58444333076477,79,34,29,41,74,169,89,45,1
1575,62.60481119155884,79,35,31,42,75,171,92,48,1
1576,62.62732815742493,87,36,32,41,73,170,92,52,1
1577,62.64409947395325,74,40,30,36,63,139,83,55,1
1578,62.664926290512085,68,40,31,36,52,104,69,50,1
1579,62.68740248680115,73,40,34,43,61,118,75,52,1
1580,62.70439147949219,74,41,34,44,60,120,73,50,1
1581,62.72665333747864,69,37,29,44,62,125,72,44,1
1582,62.7474250793457,75,35,32,47,60,132,72,42,1
1583,62.76478838920593,73,33,36,48,59,130,73,42,1
1584,62.78478217124939,66,31,34,43,48,120,71,38,1
1585,62.80724573135376,76,35,33,43,50,122,76,43,1
1586,62.82451415061951,91,39,35,47,57,142,85,46,1
1587,62.844980001449585,82,40,37,43,53,119,74,45,1
1588,62.8675262928009,82,40,32,38,50,118,71,44,1
1589,62.88510322570801,83,42,31,35,50,111,66,45,1
1590,62.9048547744751,85,41,30,39,54,111,64,54,1
1591,62.92732095718384,76,38,31,33,46,75,50,51,1
1592,62.94410228729248,78,39,28,33,44,75,49,51,1
1593,62.964991092681885,77,40,26,32,44,72,47,54,1
1594,62.98744750022888,81,40,28,33,41,71,45,52,1
1595,63.0043888092041,75,38,28,27,35,66,57,44,1
1596,63.0326406955719,61,35,25,29,33,75,56,48,1
1597,63.047487020492554,64,31,26,29,36,76,57,46,1
1598,63.06463885307312,67,30,28,34,37,82,61,43,1
1599,63.08500123023987,66,30,28,33,37,81,64,44,1
1600,63.10745906829834,67,31,31,37,48,94,52,40,1
1601,63.124337911605835,75,36,35,38,54,111,62,35,1
1602,63.14442753791809,70,38,33,37,51,111,62,35,1
1603,63.16971302032471,67,38,33,34,53,108,60,36,1
1604,63.18445348739624,63,37,33,34,54,111,62,41,1
1605,63.20515322685242,85,38,31,35,45,100,62,41,1
1606,63.234516859054565,81,35,30,37,37,68,51,41,1
1607,63.24956917762756,87,33,31,37,39,66,50,42,1
1608,63.2653591632843,87,33,32,38,38,72,53,48,1
1609,63.28754925727844,85,33,35,41,43,66,55,46,1
1610,63.30438280105591,56,28,33,37,40,50,52,45,1
1611,63.32484722137451,70,30,31,32,40,51,53,47,1
1612,63.347323179244995,71,36,31,36,43,65,60,50,1
1613,63.36485314369202,78,36,30,37,43,62,61,51,1
1614,63.38443851470947,82,40,28,36,40,65,54,48,1
1615,63.406965255737305,85,42,30,35,44,70,55,49,1
1616,63.42450475692749,71,40,30,36,42,71,55,47,1
1617,63.44526720046997,74,45,32,31,38,62,54,46,1
1618,63.46788835525513,73,47,32,32,42,68,55,44,1
1619,63.48493671417236,70,44,30,29,42,67,55,44,1
1620,63.50497603416443,68,44,32,28,37,61,55,43,1
1621,63.527271032333374,70,45,31,30,38,65,61,48,1
1622,63.544342041015625,75,38,30,31,41,71,64,51,1
1623,63.56485843658447,74,33,32,29,36,63,61,48,1
1624,63.587613105773926,75,35,31,29,33,62,63,48,1
1625,63.60480356216431,76,34,31,35,38,72,69,48,1
1626,63.62480711936951,77,38,35,39,42,75,68,43,1
1627,63.64866232872009,80,38,35,40,41,68,56,35,1
1628,63.66983437538147,80,41,36,46,55,87,59,33,1
1629,63.68527173995972,79,40,37,47,55,91,55,33,1
1630,63.70745801925659,75,39,35,43,53,85,46,34,1
1631,63.7302610874176,80,35,31,42,54,83,40,38,1
1632,63.74468278884888,62,32,33,41,53,81,43,39,1
1633,63.76761198043823,56,32,31,37,38,58,39,41,1
1634,63.7894024848938,67,37,34,40,44,65,48,45,1
1635,63.8043851852417,67,38,34,42,44,70,59,45,1
1636,63.83518671989441,59,39,35,39,39,68,59,46,1
1637,63.84998607635498,57,39,35,39,41,69,59,45,1
1638,63.86505603790283,64,39,33,36,43,69,58,43,1
1639,63.88745880126953,65,36,29,32,39,60,58,44,1
1640,63.910703897476196,68,36,28,36,43,69,60,46,1
1641,63.92479085922241,70,37,33,41,45,73,58,45,1
1642,63.94732856750488,71,36,31,39,43,73,58,45,1
1643,63.969791650772095,63,33,29,38,40,80,64,45,1
1644,63.98483920097351,59,32,35,43,39,95,70,45,1
1645,64.00727605819702,54,33,34,38,34,87,62,42,1
1646,64.03072881698608,51,30,30,34,30,83,64,41,1
1647,64.0447690486908,50,36,34,36,29,81,63,39,1
1648,64.06782746315002,48,38,38,38,29,77,57,41,1
1649,64.09812259674072,67,40,39,36,28,58,50,44,1
1650,64.10611033439636,94,45,40,39,40,85,58,44,1
1651,64.12759232521057,98,45,42,43,44,87,56,48,1
1652,64.15812087059021,98,43,38,43,45,89,58,48,1
1653,64.1648416519165,103,43,35,41,47,90,61,51,1
1654,64.18698263168335,102,39,30,41,53,102,64,47,1
1655,64.21003198623657,79,34,29,38,44,76,52,46,1
1656,64.22479605674744,75,35,26,36,43,78,55,46,1
1657,64.24744296073914,82,35,29,36,46,79,54,48,1
1658,64.2699556350708,79,35,29,38,49,92,56,50,1
1659,64.2848436832428,71,36,30,37,42,79,51,49,1
1660,64.30731964111328,70,34,29,38,42,83,54,48,1
1661,64.3298454284668,70,34,30,37,44,89,54,46,1
1662,64.34485054016113,71,32,30,37,53,105,58,48,1
1663,64.36725306510925,67,31,30,37,51,98,52,40,1
1664,64.38982844352722,62,30,29,35,52,96,51,38,1
1665,64.40524697303772,74,33,30,36,52,93,51,39,1
1666,64.42699813842773,73,34,29,39,50,86,50,40,1
1667,64.44988250732422,66,33,28,38,42,68,53,40,1
1668,64.46495485305786,67,34,29,38,47,69,59,44,1
1669,64.48745894432068,60,34,28,38,45,75,60,44,1
1670,64.50999093055725,48,33,26,37,45,76,57,43,1
1671,64.52515077590942,62,37,26,35,44,80,62,43,1
1672,64.54724788665771,61,37,28,35,40,75,53,39,1
1673,64.56982040405273,63,37,26,36,34,67,52,42,1
1674,64.5848958492279,74,42,28,43,40,67,61,58,1
1675,64.60935473442078,70,42,28,43,42,77,71,66,1
1676,64.62988042831421,57,37,28,41,39,69,69,64,1
1677,64.65250635147095,74,36,26,38,38,70,72,65,1
1678,64.66837334632874,77,37,27,36,38,66,68,63,1
1679,64.68986296653748,88,35,29,37,39,68,63,57,1
1680,64.712890625,93,37,33,39,37,59,58,55,1
1681,64.72759222984314,93,38,32,38,39,61,55,56,1
1682,64.75029850006104,81,40,33,39,38,59,51,55,1
1683,64.77266788482666,82,43,33,41,38,61,53,53,1
1684,64.78735661506653,63,42,35,36,32,52,48,44,1
1685,64.8116180896759,58,39,33,36,36,48,48,39,1
1686,64.83259010314941,59,39,34,37,34,47,44,35,1
1687,64.84885931015015,63,40,34,37,38,51,53,38,1
1688,64.86986994743347,73,37,34,36,37,49,53,39,1
1689,64.8934543132782,75,35,30,34,38,52,58,41,1
1690,64.9073760509491,75,34,29,32,33,59,56,41,1
1691,64.9298324584961,73,36,30,32,35,59,56,42,1
1692,64.95235991477966,82,38,30,33,35,61,61,45,1
1693,64.9748284816742,72,38,29,37,40,73,64,48,1
1694,64.9922730922699,69,38,31,34,39,71,58,44,1
1695,65.01286888122559,67,38,31,35,41,64,57,44,1
1696,65.02697706222534,71,35,30,33,43,66,64,46,1
1697,65.04989957809448,61,32,30,36,45,69,67,48,1
1698,65.07234477996826,61,44,34,35,43,64,74,50,1
1699,65.08733463287354,61,43,32,36,43,70,75,49,1
1700,65.10990643501282,62,45,33,35,41,70,77,48,1
1701,65.13291430473328,57,46,33,38,40,74,75,47,1
1702,65.14730262756348,55,45,32,34,36,70,69,44,1
1703,65.1698408126831,52,30,26,30,34,62,60,37,1
1704,65.19242215156555,55,32,27,28,37,76,67,43,1
1705,65.20752501487732,57,30,27,29,37,78,66,43,1
1706,65.23008060455322,72,33,27,25,39,82,69,45,1
1707,65.2524242401123,73,34,27,28,42,82,63,41,1
1708,65.2677845954895,72,36,30,30,42,82,61,41,1
1709,65.28934788703918,68,35,28,30,38,61,50,34,1
1710,65.31302642822266,79,35,28,28,38,59,47,36,1
1711,65.32749199867249,73,37,28,33,39,57,48,40,1
1712,65.34997224807739,77,36,29,34,39,70,52,40,1
1713,65.37284851074219,75,36,28,38,43,82,60,41,1
1714,65.38782262802124,74,37,29,38,44,82,61,42,1
1715,65.40984988212585,60,36,30,40,46,86,66,43,1
1716,65.43233585357666,55,34,29,36,41,85,62,37,1
1717,65.44741988182068,52,38,27,35,37,77,67,43,1
1718,65.47015571594238,53,37,27,30,36,65,60,40,1
1719,65.5007860660553,55,36,28,30,35,68,62,40,1
1720,65.50734210014343,67,37,26,29,34,72,58,38,1
1721,65.5299961566925,66,38,27,30,35,71,65,47,1
1722,65.55237102508545,71,35,30,26,35,67,57,43,1
1723,65.57492232322693,75,37,30,25,31,66,59,45,1
1724,65.58991956710815,73,37,29,25,33,64,57,45,1
1725,65.6124038696289,62,36,30,26,33,54,60,46,1
1726,65.63656401634216,66,38,33,31,36,56,52,38,1
1727,65.64948201179504,69,39,31,35,40,60,54,43,1
1728,65.67263102531433,73,39,32,36,39,62,54,45,1
1729,65.69501876831055,76,40,35,38,38,64,54,45,1
1730,65.70960068702698,76,39,35,36,37,61,48,45,1
1731,65.73206448554993,71,36,30,32,33,50,44,45,1
1732,65.75474834442139,67,34,32,33,32,47,44,44,1
1733,65.7695746421814,58,32,30,32,32,47,40,42,1
1734,65.79244017601013,61,32,27,35,45,66,49,43,1
1735,65.81497406959534,60,34,33,40,47,77,54,42,1
1736,65.83763098716736,61,33,34,41,47,79,54,39,1
1737,65.85272407531738,67,34,32,38,45,81,54,43,1
1738,65.87508344650269,72,41,37,40,45,78,57,45,1
1739,65.89000749588013,75,42,38,36,31,67,54,44,1
1740,65.9123694896698,84,41,34,33,37,64,50,48,1
1741,65.93576335906982,85,41,34,34,39,63,53,48,1
1742,65.9501302242279,88,49,40,39,40,60,56,48,1
1743,65.97250723838806,87,42,37,39,43,70,60,51,1
1744,65.99484896659851,81,39,34,37,43,64,54,50,1
1745,66.01016116142273,74,42,35,36,37,61,54,45,1
1746,66.03250885009766,78,45,38,37,40,77,64,53,1
1747,66.05487537384033,63,40,32,31,38,77,61,47,1
1748,66.06988787651062,60,41,29,30,33,69,56,42,1
1749,66.09189081192017,62,43,34,35,35,70,57,44,1
1750,66.11489772796631,69,39,39,47,40,78,60,51,1
1751,66.13029837608337,90,36,37,45,36,63,48,48,1
1752,66.15238189697266,88,33,40,49,39,64,45,47,1
1753,66.17529106140137,90,34,41,48,39,64,46,50,1
1754,66.1899025440216,93,36,41,50,43,75,62,60,1
1755,66.21255302429199,89,39,35,41,38,61,62,56,1
1756,66.23500990867615,61,37,35,40,39,62,60,51,1
1757,66.24985122680664,66,37,35,40,40,67,61,53,1
1758,66.2724027633667,62,36,35,42,43,66,61,51,1
1759,66.29495787620544,61,35,35,42,42,55,45,40,1
1760,66.30987906455994,58,35,38,42,43,59,43,39,1
1761,66.33496046066284,66,38,40,43,43,57,44,40,1
1762,66.3543930053711,80,43,39,40,44,51,49,39,1
1763,66.36989212036133,81,43,36,38,42,51,46,41,1
1764,66.3925347328186,78,42,37,33,38,49,44,42,1
1765,66.414879322052,77,46,32,30,37,52,47,44,1
1766,66.43153190612793,72,45,31,30,35,51,51,43,1
1767,66.45261788368225,49,40,31,33,35,51,47,43,1
1768,66.47488927841187,62,41,31,32,36,49,48,40,1
1769,66.48985385894775,70,43,28,34,39,57,50,38,1
1770,66.5120644569397,74,35,27,36,43,79,58,38,1
1771,66.53524470329285,75,34,25,35,43,81,58,36,1
1772,66.55756711959839,76,33,23,32,38,78,57,39,1
1773,66.57255101203918,83,33,29,35,37,80,57,39,1
1774,66.59514570236206,86,35,33,35,35,77,60,40,1
1775,66.61755800247192,84,35,33,33,28,48,49,39,1
1776,66.63314318656921,81,34,33,33,29,41,44,37,1
1777,66.65487313270569,80,36,34,35,34,46,43,32,1
1778,66.67749547958374,66,43,32,39,44,73,63,50,1
1779,66.69249749183655,57,39,27,36,42,72,61,48,1
1780,66.71508693695068,52,41,27,36,43,75,61,50,1
1781,66.73746919631958,51,42,28,43,45,80,63,53,1
1782,66.75257420539856,54,42,29,42,44,82,64,54,1
1783,66.77556443214417,61,38,29,38,36,63,51,42,1
1784,66.79791140556335,60,38,33,38,38,61,48,45,1
1785,66.8125627040863,66,36,33,39,36,61,61,49,1
1786,66.83514165878296,68,36,32,33,35,57,63,50,1
1787,66.85772776603699,67,36,32,34,32,54,64,52,1
1788,66.87247252464294,61,36,37,36,35,56,61,49,1
1789,66.89486527442932,59,39,35,37,36,61,62,49,1
1790,66.9176504611969,52,39,36,38,36,60,51,45,1
1791,66.93294429779053,51,42,36,38,36,61,56,43,1
1792,66.95513105392456,51,41,36,36,36,60,54,42,1
1793,66.9776222705841,41,39,28,34,34,55,55,42,1
1794,66.99185585975647,40,34,28,35,35,48,55,44,1
1795,67.02324676513672,44,34,26,34,35,46,55,43,1
1796,67.03752064704895,51,32,28,35,38,53,55,43,1
1797,67.05262660980225,51,32,33,35,36,52,54,40,1
1798,67.07521677017212,52,31,33,34,36,51,51,39,1
1799,67.09774470329285,53,34,39,40,40,57,55,46,1
1800,67.11213088035583,53,36,39,41,41,59,54,45,1
1801,67.13436269760132,43,36,40,41,40,53,50,47,1
1802,67.1577844619751,53,37,39,41,41,53,50,49,1
1803,67.17236852645874,67,37,38,40,40,54,55,51,1
1804,67.19523978233337,70,35,33,36,39,61,59,45,1
1805,67.21781277656555,70,32,34,34,39,59,59,46,1
1806,67.23238182067871,73,29,33,32,37,63,57,43,1
1807,67.25523447990417,65,31,31,38,44,77,65,40,1
1808,67.2774224281311,49,30,33,38,46,78,61,39,1
1809,67.29232501983643,47,40,41,41,43,67,52,39,1
1810,67.31514358520508,45,40,42,45,48,69,48,36,1
1811,67.33702683448792,51,45,44,46,54,84,53,43,1
1812,67.3519983291626,56,46,50,47,50,72,44,45,1
1813,67.37489628791809,59,47,51,46,48,71,43,45,1
1814,67.39789366722107,59,42,46,39,47,84,48,42,1
1815,67.41279983520508,64,44,46,40,44,86,49,47,1
1816,67.43504786491394,69,44,45,43,37,73,55,46,1
1817,67.45736050605774,66,40,37,37,37,71,55,45,1
1818,67.48059058189392,63,40,35,40,36,71,55,44,1
1819,67.49495792388916,62,37,37,46,41,60,53,45,1
1820,67.51683974266052,68,34,32,41,40,72,64,42,1
1821,67.54082536697388,61,29,31,36,40,73,55,34,1
1822,67.55506134033203,64,32,33,38,39,73,57,35,1
1823,67.57748746871948,65,30,34,37,43,80,57,36,1
1824,67.60091781616211,64,30,30,30,37,76,56,36,1
1825,67.61516523361206,58,34,33,38,35,59,43,39,1
1826,67.63750672340393,55,33,35,46,47,84,48,44,1
1827,67.66058874130249,62,33,33,45,48,92,47,43,1
1828,67.67498135566711,66,44,43,53,49,86,47,43,1
1829,67.6974663734436,67,43,44,56,53,88,53,42,1
1830,67.72075843811035,60,39,42,51,52,88,52,40,1
1831,67.73478960990906,58,38,39,44,40,57,51,41,1
1832,67.75808334350586,60,40,44,47,40,45,56,43,1
1833,67.78161907196045,67,35,39,42,35,50,57,45,1
1834,67.7948727607727,66,34,38,38,31,47,52,45,1
1835,67.81720900535583,66,36,41,42,37,56,55,44,1
1836,67.84069037437439,76,43,46,45,40,62,57,43,1
1837,67.85502552986145,71,39,42,42,40,62,54,45,1
1838,67.87760353088379,59,34,38,37,39,60,53,44,1
1839,67.90065288543701,63,39,42,42,45,61,56,43,1
1840,67.9157166481018,69,42,40,42,42,63,63,46,1
1841,67.93743467330933,62,37,36,41,39,58,57,46,1
1842,67.96073770523071,59,36,36,41,43,61,57,42,1
1843,67.9751045703888,59,38,40,47,47,66,56,42,1
1844,67.99740147590637,54,32,38,42,42,67,56,44,1
1845,68.02175188064575,52,28,37,40,40,64,49,38,1
1846,68.03516244888306,46,29,40,39,39,59,48,39,1
1847,68.05739426612854,52,32,41,39,36,57,51,42,1
1848,68.08089256286621,54,35,40,35,30,47,52,43,1
1849,68.09491086006165,56,39,39,37,30,43,49,42,1
1850,68.11748099327087,56,42,39,38,30,35,46,43,1
1851,68.1405816078186,54,40,36,38,30,39,49,42,1
1852,68.15444612503052,49,38,35,39,34,49,42,39,1
1853,68.1779100894928,60,35,37,38,35,55,42,38,1
1854,68.20088148117065,62,31,38,41,39,64,45,38,1
1855,68.2149133682251,59,26,36,41,39,62,46,37,1
1856,68.2368905544281,58,23,35,40,41,65,44,37,1
1857,68.27026748657227,57,26,35,45,39,61,44,36,1
1858,68.27749156951904,50,29,35,48,42,58,44,40,1
1859,68.29711508750916,48,33,33,44,43,57,49,43,1
1860,68.32016777992249,48,35,33,43,42,58,47,44,1
1861,68.3352861404419,50,39,38,46,41,56,49,44,1
1862,68.35801410675049,50,37,35,38,39,52,49,46,1
1863,68.38056254386902,43,33,31,31,33,49,49,41,1
1864,68.3949043750763,42,30,29,31,29,44,44,38,1
1865,68.41767239570618,43,32,33,32,30,42,46,37,1
1866,68.44062042236328,44,30,31,28,29,39,46,34,1
1867,68.46292877197266,48,33,34,29,29,44,50,35,1
1868,68.47738814353943,55,38,37,31,31,51,56,42,1
1869,68.50105214118958,57,40,40,31,31,51,57,45,1
1870,68.52316546440125,56,37,36,32,32,56,63,45,1
1871,68.53741526603699,54,35,34,31,31,55,60,44,1
1872,68.56009817123413,56,35,35,35,33,52,58,42,1
1873,68.58359384536743,60,33,31,33,31,45,52,40,1
1874,68.5975182056427,57,30,28,34,33,41,51,38,1
1875,68.620760679245,56,31,31,33,29,33,43,38,1
1876,68.80058145523071,44,36,39,40,36,46,44,46,1
1877,68.82430148124695,55,38,42,44,46,59,51,48,1
1878,68.8375654220581,53,35,41,45,45,58,51,46,1
1879,68.86067271232605,53,32,37,41,43,55,50,45,1
1880,68.88340878486633,54,31,40,45,44,63,52,47,1
1881,68.89833116531372,63,32,38,40,44,64,59,44,1
1882,68.9206428527832,56,33,35,34,38,49,54,42,1
1883,68.94417595863342,60,37,37,34,38,52,54,44,1
1884,68.95741009712219,61,40,40,36,37,53,49,42,1
1885,68.98127317428589,63,39,37,32,32,48,54,40,1
1886,69.00343203544617,52,37,33,29,31,49,52,39,1
1887,69.01802515983582,60,37,34,29,28,48,54,37,1
1888,69.04059267044067,57,41,35,30,26,45,55,37,1
1889,69.0649528503418,57,40,29,29,30,47,58,39,1
1890,69.07804441452026,54,40,32,32,29,46,52,37,1
1891,69.10859727859497,52,42,32,33,27,43,47,35,1
1892,69.12337756156921,41,40,33,38,28,44,43,36,1
1893,69.13766074180603,63,38,31,38,31,48,47,42,1
1894,69.15955066680908,64,37,31,39,28,41,46,40,1
1895,69.34106111526489,55,31,36,35,35,76,59,42,1
1896,69.36343216896057,55,31,34,35,34,73,59,43,1
1897,69.38590168952942,47,28,30,34,32,73,58,43,1
1898,69.39998126029968,48,28,28,31,33,73,62,42,1
1899,69.42309641838074,45,30,25,28,30,65,55,44,1
1900,69.44599342346191,44,33,29,29,28,46,48,39,1
1901,69.46003293991089,48,38,32,30,31,46,48,39,1
1902,69.48324012756348,50,37,32,32,31,47,48,36,1
1903,69.50575399398804,44,37,31,30,29,46,42,36,1
1904,69.5200035572052,57,34,33,34,33,49,49,33,1
1905,69.54321384429932,59,33,32,35,32,48,47,34,1
1906,69.56571245193481,57,30,33,36,34,49,52,32,1
1907,69.5800244808197,63,28,32,36,38,59,54,33,1
1908,69.60329985618591,65,30,32,37,38,56,54,28,1
1909,69.62565684318542,57,30,29,32,35,54,50,35,1
1910,69.6403877735138,69,33,29,35,40,63,58,39,1
1911,69.66311001777649,69,32,26,33,38,60,50,41,1
1912,69.68600535392761,63,34,26,32,34,51,50,42,1
1913,69.69961500167847,60,31,26,29,33,52,48,43,1
1914,69.7228364944458,60,32,28,31,33,51,53,40,1
1915,69.74577307701111,45,30,31,27,28,46,47,37,1
1916,69.75991439819336,46,30,33,30,31,63,56,39,1
1917,69.78277158737183,46,31,36,34,30,62,55,40,1
1918,69.90356993675232,48,27,31,31,33,42,32,38,1
1919,69.92560911178589,47,28,31,31,32,41,31,38,1
1920,69.94050097465515,68,28,33,33,36,51,50,45,1
1921,69.96265172958374,63,25,34,30,32,43,49,42,1
1922,69.98613548278809,63,23,32,32,34,47,53,43,1
1923,69.9999430179596,62,25,29,34,33,51,56,43,1
1924,70.02318572998047,70,30,29,38,36,55,59,48,1
1925,70.26342511177063,90,50,32,47,52,92,79,65,1
1926,70.28622555732727,92,54,36,79,93,156,110,74,1
1927,70.30882263183594,96,53,36,83,102,173,118,74,1
1928,70.32324266433716,98,55,35,82,102,173,122,77,1
1929,71.0421404838562,463,208,67,131,234,446,247,148,1
1930,71.0659544467926,377,266,68,126,209,398,226,137,1
1931,71.08822560310364,387,284,68,121,202,404,221,130,1
1932,71.10289335250854,373,259,67,118,195,396,202,149,1
1933,71.12599563598633,398,285,70,114,184,392,249,154,1
1934,71.14830899238586,423,296,70,117,198,438,263,163,1
1935,71.16274166107178,451,250,56,108,171,387,250,163,1
1936,71.18599152565002,445,238,52,103,167,377,244,165,1
1937,71.2086591720581,461,279,61,108,167,372,249,152,1
1938,71.22259998321533,400,261,74,109,167,372,209,144,1
1939,71.24595999717712,438,266,77,115,175,340,213,136,1
1940,71.26808476448059,402,248,73,107,165,329,188,117,1
1941,71.29064178466797,408,260,74,111,174,329,189,116,1
1942,71.30595803260803,453,215,72,124,193,370,207,151,1
1943,71.32820200920105,448,218,60,120,196,391,194,149,1
1944,71.35031604766846,375,201,62,116,178,369,220,186,1
1945,71.36569309234619,384,256,67,129,204,440,272,194,1
1946,71.38819742202759,389,242,67,131,212,452,283,202,1
1947,71.41111207008362,348,256,64,130,211,458,272,178,1
1948,71.42555236816406,441,268,66,141,220,445,283,179,1
1949,71.4481360912323,446,263,61,139,220,440,253,132,1
1950,71.47099304199219,406,213,56,125,191,362,198,115,1
1951,71.4851586818695,421,237,63,126,184,364,190,110,1
1952,71.50901865959167,463,255,58,113,157,294,186,117,1
1953,71.53077530860901,391,260,51,105,146,300,162,108,1
1954,71.54612565040588,393,262,48,98,134,300,174,121,1
1955,71.56880521774292,423,265,52,104,143,304,186,141,1
1956,71.59089922904968,407,257,43,104,150,313,198,145,1
1957,71.60483884811401,325,219,49,103,151,302,201,132,1
1958,71.63766360282898,332,182,48,90,137,276,200,134,1
1959,71.65061092376709,327,184,51,92,140,251,200,137,1
1960,71.6649239063263,286,172,49,84,130,248,192,116,1
1961,71.68814182281494,301,141,48,81,122,235,182,106,1
1962,71.71208357810974,297,154,42,76,119,243,170,108,1
1963,71.72498559951782,263,177,42,85,124,251,164,99,1
1964,71.74832940101624,284,178,40,84,136,306,164,99,1
1965,71.77078151702881,278,172,40,88,150,326,158,105,1
1966,71.7852189540863,273,207,46,90,153,319,151,112,1
1967,71.80778503417969,295,198,52,98,159,313,163,128,1
1968,71.83802223205566,309,175,52,90,158,331,184,133,1
1969,71.85372686386108,280,164,53,84,140,283,164,122,1
1970,71.86817646026611,282,172,52,82,131,272,164,121,1
1971,71.89112401008606,269,131,46,76,128,279,177,129,1
1972,71.90506100654602,273,141,44,63,115,274,161,118,1
1973,71.92820739746094,249,134,41,60,105,233,134,118,1
1974,71.9512448310852,272,169,36,59,102,215,138,131,1
1975,71.9649703502655,262,158,40,63,104,192,145,128,1
1976,71.98840618133545,317,182,41,77,115,182,138,113,1
1977,72.01065850257874,310,176,39,79,115,180,154,113,1
1978,72.02498364448547,314,187,40,80,113,181,151,109,1
1979,72.0482542514801,300,161,42,78,108,176,144,89,1
1980,72.07081937789917,319,168,39,80,112,199,150,98,1
1981,72.08558392524719,261,149,37,65,90,173,148,92,1
1982,72.1083152294159,254,149,40,68,105,186,148,97,1
1983,72.13068747520447,231,142,40,68,106,187,150,93,1
1984,72.1450502872467,215,138,39,82,119,216,168,105,1
1985,72.16818261146545,225,146,39,75,107,207,162,100,1
1986,72.19110894203186,214,138,39,74,102,205,147,100,1
1987,72.21319937705994,208,121,32,67,83,186,125,87,1
1988,72.22919917106628,281,122,32,76,100,204,125,89,1
1989,72.25080108642578,299,135,31,66,89,179,110,77,1
1990,72.27364087104797,274,120,35,76,95,165,115,73,1
1991,72.288165807724,305,159,36,85,108,175,125,79,1
1992,72.31078553199768,290,160,39,86,109,174,126,78,1
1993,72.33345937728882,229,156,41,82,101,176,146,86,1
1994,72.34879922866821,215,143,44,86,102,181,142,87,1
1995,72.37040996551514,221,139,42,82,103,187,131,85,1
1996,72.39259576797485,164,81,40,67,84,166,118,73,1
1997,72.40927052497864,198,77,36,65,91,201,134,76,1
1998,72.43786263465881,204,67,33,62,87,201,119,73,1
1999,72.45221138000488,212,72,29,48,81,197,112,74,1
2000,72.4683907032013,211,98,28,44,78,195,122,73,1
2001,72.4899730682373,224,110,35,52,86,209,128,90,1
2002,72.51247930526733,202,111,46,61,86,180,125,93,1
2003,72.52956938743591,188,113,46,61,87,178,122,89,1
2004,72.55001759529114,177,108,47,73,110,226,134,98,1
2005,72.57280802726746,189,97,47,76,120,249,134,104,1
2006,72.58949613571167,194,96,42,77,122,251,136,97,1
2007,72.6100606918335,229,114,31,74,116,245,122,95,1
2008,72.63243818283081,292,134,33,77,110,227,118,101,1
2009,72.65042757987976,353,144,32,78,87,172,125,102,1
2010,72.67003393173218,391,182,29,76,69,132,122,104,1
2011,72.70110607147217,391,184,33,76,66,119,131,106,1
2012,72.71671509742737,370,189,30,76,86,173,143,109,1
2013,72.72984075546265,337,183,30,72,92,182,142,112,1
2014,72.75252342224121,296,178,31,63,100,210,129,107,1
2015,72.76978921890259,249,152,32,58,101,210,119,108,1
2016,72.78947424888611,252,161,31,66,113,216,104,109,1
2017,72.81281971931458,252,148,35,67,100,182,85,104,1
2018,72.82950186729431,249,149,35,73,114,217,105,103,1
2019,72.85262298583984,229,148,38,72,106,197,101,99,1
2020,72.87200832366943,258,150,40,79,118,248,129,106,1
2021,72.89023447036743,264,137,39,68,105,249,136,101,1
2022,72.91209959983826,300,142,38,63,109,277,151,104,1
2023,72.93254947662354,286,132,37,57,90,244,138,94,1
2024,72.95106816291809,277,138,40,52,96,259,142,96,1
2025,72.9718222618103,221,112,39,55,76,207,114,77,1
2026,72.99447631835938,229,126,39,57,74,205,109,82,1
2027,73.0094633102417,190,139,38,73,89,191,122,86,1
2028,73.03220057487488,194,143,39,75,93,195,121,84,1
2029,73.05354332923889,202,134,31,81,101,195,120,81,1
2030,73.07058119773865,207,142,36,76,101,202,121,82,1
2031,73.09199619293213,208,134,38,73,100,188,119,78,1
2032,73.11242651939392,201,105,41,66,84,162,108,86,1
2033,73.13026738166809,303,189,48,68,93,185,119,91,1
2034,73.15189409255981,328,200,49,67,110,183,122,90,1
2035,73.17266583442688,367,218,48,68,151,177,126,90,1
2036,73.19495868682861,362,225,49,79,168,226,151,91,1
2037,73.21178150177002,376,233,48,72,171,255,150,80,1
2038,73.23253202438354,324,173,42,69,166,234,140,80,1
2039,73.25563454627991,301,174,41,78,149,220,143,88,1
2040,73.27298307418823,265,157,38,79,115,230,158,96,1
2041,73.29308271408081,252,141,35,72,99,196,141,94,1
2042,73.31461763381958,246,128,33,72,91,164,139,95,1
2043,73.33116364479065,218,123,31,71,92,172,142,93,1
2044,73.35242819786072,206,102,32,60,89,167,137,91,1
2045,73.37726140022278,200,80,30,54,79,161,125,85,1
2046,73.39222407341003,220,129,33,57,75,151,116,83,1
2047,73.41250371932983,193,127,31,54,71,142,100,73,1
2048,73.43503141403198,185,130,35,62,78,153,118,83,1
2049,73.45318055152893,191,134,42,74,88,164,123,99,1
2050,73.47268319129944,174,133,41,74,86,157,118,96,1
2051,73.49506521224976,125,81,41,72,87,167,122,96,1
2052,73.51190423965454,128,82,45,82,99,205,137,104,1
2053,73.53290104866028,137,88,49,81,95,212,131,104,1
2054,73.55501580238342,119,74,47,88,89,203,123,83,1
2055,73.57277011871338,122,79,50,91,97,219,126,84,1
2056,73.59459090232849,150,80,48,90,92,210,121,86,1
2057,73.61522507667542,159,73,45,86,85,186,115,81,1
2058,73.63112473487854,173,59,39,82,88,191,115,74,1
2059,73.65273714065552,182,63,34,68,96,207,122,76,1
2060,73.67498922348022,188,63,31,63,87,192,117,78,1
2061,73.69227123260498,207,80,32,73,120,277,154,87,1
2062,73.71251177787781,205,82,33,68,117,270,148,83,1
2063,73.73489475250244,194,81,30,68,112,256,136,78,1
2064,73.75170540809631,192,85,30,65,112,259,157,88,1
2065,73.77289319038391,188,83,31,73,126,279,168,88,1
2066,73.79482316970825,165,84,37,76,95,192,140,84,1
2067,73.81117939949036,155,84,35,76,103,209,143,85,1
2068,73.83254814147949,139,89,40,82,112,217,157,88,1
2069,73.85577654838562,157,86,39,78,103,200,132,85,1
2070,73.87229251861572,158,85,38,73,89,184,118,82,1
2071,73.89477157592773,144,81,33,75,88,183,121,74,1
2072,73.91489887237549,156,83,34,77,85,164,120,78,1
2073,73.93289518356323,192,79,32,81,94,187,121,84,1
2074,73.95276832580566,178,75,33,81,95,187,114,72,1
2075,73.97549605369568,179,79,32,79,93,170,118,76,1
2076,73.99243521690369,182,64,33,59,91,175,104,77,1
2077,74.01265072822571,172,64,35,58,92,204,121,79,1
2078,74.03476524353027,140,61,32,59,78,187,127,73,1
2079,74.0520658493042,147,71,42,80,105,215,146,79,1
2080,74.07270097732544,136,67,41,79,101,213,142,77,1
2081,74.09494209289551,128,70,41,82,103,217,157,89,1
2082,74.11748099327087,156,68,38,87,111,217,152,94,1
2083,74.13249206542969,138,65,38,81,105,199,133,91,1
2084,74.15512228012085,127,57,30,68,84,178,112,88,1
2085,74.177889585495,140,59,33,82,124,257,143,97,1
2086,74.19221472740173,156,62,35,83,132,275,134,83,1
2087,74.21450591087341,131,64,35,77,128,259,124,75,1
2088,74.23960900306702,159,74,36,75,138,278,141,89,1
2089,74.2526125907898,169,71,34,70,136,274,146,90,1
2090,74.27515625953674,174,74,32,54,106,208,114,87,1
2091,74.29714608192444,164,69,31,50,95,174,106,88,1
2092,74.31252074241638,190,71,37,72,98,186,126,98,1
2093,74.33534073829651,177,65,38,70,88,168,111,84,1
2094,74.35745358467102,168,63,38,72,91,188,113,85,1
2095,74.38001203536987,162,55,37,73,89,190,120,77,1
2096,74.39498972892761,156,58,38,74,89,195,125,76,1
2097,74.41831564903259,132,55,34,57,79,187,122,81,1
2098,74.44034552574158,142,60,34,68,73,181,120,87,1
2099,74.45523023605347,141,64,34,66,67,167,124,93,1
2100,74.47762513160706,156,68,38,66,72,166,121,97,1
2101,74.49196314811707,160,71,36,64,71,162,115,98,1
2102,74.51506686210632,151,75,35,57,65,142,91,84,1
2103,74.53756523132324,151,86,33,44,72,155,92,77,1
2104,74.55242013931274,158,85,34,68,83,149,95,70,1
2105,74.57500839233398,148,88,33,70,78,151,96,63,1
2106,74.5986340045929,152,88,36,81,93,167,100,56,1
2107,74.61245489120483,165,91,47,98,117,204,112,52,1
2108,74.63658905029297,172,85,49,100,117,197,111,55,1
2109,74.65805721282959,170,86,47,86,129,225,111,53,1
2110,74.67268538475037,165,80,47,90,135,236,113,57,1
2111,74.69515872001648,168,84,45,81,127,231,115,59,1
2112,74.71765232086182,170,78,37,61,112,220,103,61,1
2113,74.73266911506653,144,73,34,54,108,212,100,59,1
2114,74.75501322746277,178,80,34,59,95,196,105,61,1
2115,74.77771759033203,181,79,34,51,86,180,104,57,1
2116,74.79281330108643,170,75,33,63,81,165,99,58,1
2117,74.81514167785645,170,81,35,61,77,166,105,63,1
2118,74.8396692276001,172,78,38,72,92,175,106,62,1
2119,74.85324144363403,126,68,38,68,83,157,89,61,1
2120,74.8753182888031,124,65,36,72,100,198,95,63,1
2121,74.90549516677856,122,62,39,60,101,201,101,63,1
2122,74.91208791732788,108,47,33,71,99,185,92,54,1
2123,74.93489003181458,117,50,30,62,86,180,92,57,1
2124,74.95763182640076,145,64,32,62,88,181,91,55,1
2125,74.9724817276001,154,65,34,61,82,174,97,64,1
2126,74.99498343467712,158,62,30,62,80,171,94,67,1
2127,75.01798152923584,159,68,33,49,76,165,95,71,1
2128,75.03280520439148,165,65,35,59,87,179,107,78,1
2129,75.0548095703125,156,53,33,56,81,171,102,86,1
2130,75.07799315452576,162,61,32,60,65,125,84,79,1
2131,75.10099291801453,166,66,34,61,65,140,81,80,1
2132,75.11501169204712,168,63,34,60,69,149,82,79,1
2133,75.13741421699524,156,60,30,50,55,138,70,72,1
2134,75.16038250923157,156,57,32,54,64,150,87,61,1
2135,75.17499470710754,130,50,30,47,67,156,92,61,1
2136,75.19812750816345,126,55,36,51,78,169,97,55,1
2137,75.22019100189209,137,56,34,52,79,173,105,63,1
2138,75.23445677757263,164,62,36,55,83,180,117,69,1
2139,75.25764274597168,150,70,35,55,77,177,109,69,1
2140,75.28021168708801,154,72,36,51,73,170,104,69,1
2141,75.29496550559998,179,70,33,60,75,165,124,85,1
2142,75.31968212127686,160,66,34,61,71,150,124,83,1
2143,75.34026336669922,133,68,33,58,63,127,107,77,1
2144,75.3555326461792,166,74,39,55,74,179,118,78,1
2145,75.37761425971985,172,73,40,55,72,183,123,78,1
2146,75.40048599243164,153,67,38,42,62,173,100,59,1
2147,75.41506338119507,175,73,37,44,72,189,102,59,1
2148,75.43781328201294,176,66,39,54,89,212,114,60,1
2149,75.46027493476868,174,56,37,53,82,166,109,77,1
2150,75.47593069076538,172,60,38,55,86,174,112,77,1
2151,75.49804353713989,169,60,39,59,92,201,130,81,1
2152,75.52052712440491,151,55,41,65,96,213,126,79,1
2153,75.53509068489075,151,61,42,61,88,195,119,77,1
2154,75.55709147453308,116,64,42,60,88,192,113,65,1
2155,75.57959365844727,119,63,42,66,93,185,110,71,1
2156,75.5949764251709,122,69,40,69,104,201,113,76,1
2157,75.61757063865662,118,66,37,58,93,173,107,74,1
2158,75.6402850151062,112,60,35,59,92,179,111,78,1
2159,75.65516066551208,173,64,34,62,95,189,109,79,1
2160,75.67771530151367,185,68,34,55,92,196,109,77,1
2161,75.70028376579285,178,65,36,45,67,143,78,68,1
2162,75.71493434906006,193,66,36,48,65,152,84,71,1
2163,75.73866605758667,199,70,36,41,58,143,70,67,1
2164,75.760169506073,183,63,35,35,51,131,78,66,1
2165,75.77503156661987,183,77,42,53,72,184,103,70,1
2166,75.79753923416138,187,75,40,59,80,195,110,73,1
2167,75.82026362419128,180,79,41,57,81,191,106,77,1
2168,75.83505964279175,173,74,43,61,83,198,114,77,1
2169,75.85993337631226,147,76,49,69,91,209,111,73,1
2170,75.8805742263794,140,56,44,56,73,168,91,66,1
2171,75.89685487747192,132,57,44,49,64,153,84,63,1
2172,75.91775846481323,121,49,43,52,66,150,85,58,1
2173,75.94021558761597,154,53,40,53,80,175,93,56,1
2174,75.95539903640747,153,47,34,46,72,160,95,55,1
2175,75.9775002002716,140,43,30,52,96,229,121,61,1
2176,76.00097036361694,139,39,31,53,102,240,129,64,1
2177,76.02249026298523,144,39,29,58,109,250,135,69,1
2178,76.03867220878601,114,39,31,57,98,227,126,67,1
2179,76.0600950717926,121,43,30,58,100,227,129,75,1
2180,76.08273696899414,128,49,30,53,72,145,102,73,1
2181,76.09775590896606,143,55,29,51,65,121,91,69,1
2182,76.12041401863098,143,54,29,42,50,109,80,62,1
2183,76.14278388023376,142,53,26,40,47,108,88,64,1
2184,76.15762495994568,128,53,28,51,58,115,89,59,1
2185,76.18245005607605,123,48,28,57,58,106,81,56,1
2186,76.2025294303894,108,46,32,61,62,114,86,58,1
2187,76.21745800971985,104,49,33,64,68,120,92,65,1
2188,76.24013710021973,119,49,38,68,72,120,84,68,1
2189,76.26259803771973,115,46,40,64,67,131,88,65,1
2190,76.27702903747559,109,47,39,56,70,144,91,66,1
2191,76.30020308494568,108,47,39,59,84,162,96,66,1
2192,76.32318139076233,104,49,40,54,79,150,94,63,1
2193,76.33753848075867,94,50,38,49,83,169,97,69,1
2194,76.36007785797119,94,49,35,41,79,150,82,66,1
2195,76.38283133506775,104,49,38,43,78,144,78,63,1
2196,76.39716148376465,111,47,40,45,72,133,80,66,1
2197,76.41975283622742,125,47,40,48,79,149,83,70,1
2198,76.44281888008118,120,46,37,46,72,128,77,64,1
2199,76.45793867111206,128,51,41,50,71,132,81,67,1
2200,76.47971773147583,137,50,42,62,79,153,106,72,1
2201,76.50261068344116,138,53,42,56,78,152,102,69,1
2202,76.51771926879883,139,53,42,56,75,135,95,63,1
2203,76.54015111923218,166,62,46,66,86,154,109,58,1
2204,76.56260132789612,159,57,41,71,89,164,108,54,1
2205,76.5776195526123,143,57,39,62,79,141,87,45,1
2206,76.60069298744202,144,53,34,60,69,129,81,52,1
2207,76.622731924057,152,61,35,64,88,185,97,50,1
2208,76.63755440711975,125,50,31,55,77,167,85,56,1
2209,76.66018176078796,128,53,33,44,71,160,86,54,1
2210,76.68280029296875,126,57,33,42,70,153,82,55,1
2211,76.69833707809448,111,55,33,41,68,154,80,43,1
2212,76.72052478790283,80,43,27,30,35,74,57,45,1
2213,76.74297881126404,68,42,32,33,39,77,54,36,1
2214,76.75765752792358,68,39,27,35,46,98,66,42,1
2215,76.78039455413818,64,34,29,41,47,101,64,42,1
2216,76.80262851715088,61,37,30,43,51,109,70,42,1
2217,76.81749963760376,70,39,33,47,62,131,85,41,1
2218,76.84007954597473,74,37,30,47,64,143,86,47,1
2219,76.86267256736755,72,40,33,48,63,125,77,52,1
2220,76.87765312194824,73,40,31,44,75,149,90,59,1
2221,76.90042567253113,73,40,32,46,84,171,91,60,1
2222,76.92290115356445,65,38,30,41,77,160,83,59,1
2223,76.93843102455139,71,41,33,41,75,158,84,59,1
2224,76.9601526260376,66,39,32,41,78,170,84,58,1
2225,76.98269653320312,67,37,32,41,65,149,72,51,1
2226,77.00510764122009,68,36,31,40,52,113,64,50,1
2227,77.02050638198853,68,38,33,43,50,106,58,52,1
2228,77.04245924949646,90,42,32,50,60,97,62,53,1
2229,77.06513547897339,86,42,30,49,52,70,55,46,1
2230,77.07957339286804,87,42,29,49,53,64,51,45,1
2231,77.10278224945068,87,41,31,48,53,65,52,45,1
2232,77.12512421607971,86,43,32,53,59,73,55,45,1
2233,77.14017462730408,57,39,32,51,57,94,65,43,1
2234,77.16302466392517,62,40,34,52,57,105,69,44,1
2235,77.18514275550842,64,40,35,53,59,108,75,49,1
2236,77.20020937919617,70,44,38,59,76,138,96,69,1
2237,77.22282433509827,73,40,36,53,73,138,93,70,1
2238,77.24527359008789,69,36,32,45,66,121,80,67,1
2239,77.26003336906433,69,33,32,43,66,114,79,71,1
2240,77.28260922431946,81,37,32,47,79,127,88,70,1
2241,77.30561542510986,77,33,28,41,72,134,87,59,1
2242,77.32017159461975,74,32,28,40,72,133,89,56,1
2243,77.3426604270935,69,32,28,40,71,128,89,54,1
2244,77.36509561538696,66,32,30,43,75,140,97,53,1
2245,77.38159489631653,97,34,30,38,64,148,110,70,1
2246,77.40259432792664,99,34,33,34,53,113,93,65,1
2247,77.42536211013794,101,34,31,33,51,112,96,65,1
2248,77.44004201889038,103,37,32,35,50,115,99,68,1
2249,77.46275424957275,109,40,35,37,50,108,92,66,1
2250,77.48650622367859,78,42,41,46,61,118,71,50,1
2251,77.50022077560425,80,41,39,46,62,126,77,48,1
2252,77.5229160785675,80,43,40,48,67,128,76,50,1
2253,77.54511094093323,79,41,42,49,67,128,72,48,1
2254,77.56048965454102,72,39,40,45,64,141,72,46,1
2255,77.58296251296997,63,32,33,33,48,111,63,39,1
2256,77.60529279708862,64,35,32,39,48,107,61,44,1
2257,77.62056255340576,60,34,32,36,40,102,54,40,1
2258,77.64291381835938,59,34,30,38,40,102,66,44,1
2259,77.66511654853821,57,33,27,38,36,79,65,45,1
2260,77.68012428283691,54,32,26,43,53,102,83,49,1
2261,77.71105360984802,43,31,32,42,55,104,84,46,1
2262,77.72525477409363,48,34,36,46,65,113,87,48,1
2263,77.74009799957275,63,35,36,45,66,120,85,46,1
2264,77.7625195980072,79,34,38,52,81,144,99,51,1
2265,77.7845106124878,84,35,38,47,72,131,86,48,1
2266,77.80047607421875,85,36,34,45,68,126,82,49,1
2267,77.82264471054077,82,32,30,42,60,119,78,46,1
2268,77.84511423110962,70,32,29,39,57,108,70,43,1
2269,78.3257827758789,183,66,46,79,106,187,144,92,1
2270,78.34790635108948,299,106,55,98,150,316,230,145,1
2271,78.36222529411316,338,161,59,99,155,332,245,152,1
2272,78.38479328155518,373,178,65,117,188,378,278,181,1
2273,78.40854048728943,379,191,64,119,198,417,293,192,1
2274,78.42269134521484,447,271,62,126,222,485,346,242,1
2275,78.44500494003296,445,289,55,121,207,447,306,237,1
2276,78.46842169761658,435,264,53,116,201,436,295,240,1
2277,78.48254585266113,444,275,48,105,192,442,315,237,1
2278,78.5052399635315,455,268,49,122,208,447,307,234,1
2279,78.52842879295349,377,192,48,112,191,421,246,183,1
2280,78.5427496433258,310,146,47,102,174,389,234,155,1
2281,78.5650622844696,316,157,49,105,181,417,235,139,1
2282,78.58848357200623,306,146,45,96,161,391,169,117,1
2283,78.6025927066803,282,141,45,75,128,352,167,99,1
2284,78.70860934257507,225,111,43,97,134,273,186,126,1
2285,78.72260618209839,201,106,45,78,107,239,178,121,1
2286,78.74553203582764,191,102,47,82,126,273,188,112,1
2287,78.76849293708801,182,111,45,76,119,243,174,111,1
2288,78.78290796279907,186,111,45,68,109,218,155,109,1
2289,78.82081413269043,164,107,39,65,104,238,163,104,1
2290,78.82838010787964,187,125,35,70,114,268,162,89,1
2291,78.84263944625854,186,108,36,64,94,235,136,83,1
2292,78.86516618728638,174,97,36,63,94,242,132,71,1
2293,78.88918948173523,180,107,35,64,98,245,130,74,1
2294,78.91085457801819,213,131,45,74,109,226,127,86,1
2295,78.925297498703,202,121,46,65,92,172,110,85,1
2296,78.9477469921112,215,124,46,62,83,153,112,84,1
2297,78.97198247909546,219,130,49,69,109,217,118,84,1
2298,78.98567152023315,220,122,50,75,106,211,121,91,1
2299,79.00843095779419,213,126,50,93,104,230,122,83,1
2300,79.03080534934998,198,119,49,94,105,235,133,88,1
2301,79.0453634262085,185,118,49,97,115,278,139,87,1
2302,79.06834983825684,181,111,50,94,94,247,141,95,1
2303,79.09825921058655,166,114,49,90,95,261,139,88,1
2304,79.10513544082642,139,77,37,58,86,242,128,81,1
2305,79.12866139411926,142,76,37,54,92,254,121,82,1
2306,79.15072965621948,160,77,37,52,86,221,116,91,1
2307,79.16512989997864,171,71,33,45,80,198,109,85,1
2308,79.18833470344543,176,66,35,52,92,221,111,84,1
2309,79.21126937866211,172,70,35,54,93,227,115,85,1
2310,79.22517466545105,186,76,37,57,90,214,118,88,1
2311,79.24931764602661,212,79,38,54,86,209,117,89,1
2312,79.27112174034119,210,84,40,57,86,216,110,84,1
2313,79.28516125679016,202,82,40,50,75,190,95,79,1
2314,79.30825090408325,203,77,42,55,91,217,111,76,1
2315,79.33145213127136,185,69,39,55,92,223,108,68,1
2316,79.3452033996582,159,63,37,55,92,220,97,56,1
2317,79.36934018135071,145,57,36,54,92,221,100,54,1
2318,79.39096403121948,138,55,34,52,84,198,98,54,1
2319,79.40535283088684,135,52,30,44,61,157,70,49,1
2320,79.42828106880188,134,52,30,41,56,137,64,45,1
2321,79.45079159736633,106,48,27,38,60,143,68,42,1
2322,79.46511101722717,96,55,33,49,86,148,101,72,1
2323,79.48834228515625,102,58,34,49,89,148,101,71,1
2324,79.51078414916992,100,57,34,49,90,150,106,74,1
2325,79.5257043838501,93,55,36,48,91,149,108,76,1
2326,79.54835629463196,86,58,41,50,102,170,111,78,1
2327,79.57087016105652,77,43,34,37,82,167,91,56,1
2328,79.58522510528564,68,41,32,42,89,174,96,56,1
2329,79.60844469070435,66,42,35,45,89,173,93,54,1
2330,79.63090085983276,67,43,37,52,101,224,118,67,1
2331,79.65388298034668,81,35,33,53,96,222,127,66,1
2332,79.66867327690125,86,34,34,59,110,230,125,67,1
2333,79.6915135383606,88,32,33,58,107,232,126,68,1
2334,79.70513105392456,87,29,32,58,110,244,132,68,1
2335,80.19422388076782,123,56,37,79,118,249,133,77,1
2336,80.20772647857666,139,63,42,89,128,255,147,85,1
2337,80.23121786117554,158,68,43,93,137,270,159,104,1
2338,80.25404453277588,190,90,41,90,139,285,165,109,1
2339,80.26784205436707,210,99,51,97,145,293,177,133,1
2340,80.29130101203918,258,126,51,97,158,344,189,146,1
2341,80.3133180141449,295,167,63,114,181,375,216,152,1
2342,80.32774424552917,312,183,63,118,186,387,210,143,1
2343,80.35109424591064,320,188,62,121,198,400,223,159,1
2344,80.3737404346466,319,192,56,119,200,406,217,137,1
2345,80.38898253440857,283,177,57,120,187,349,206,125,1
2346,80.41094303131104,262,148,40,94,140,261,161,115,1
2347,80.43346214294434,242,165,45,94,139,261,166,123,1
2348,80.44760799407959,219,154,46,88,118,244,154,98,1
2349,80.4715838432312,219,148,46,82,107,219,158,100,1
2350,80.49345827102661,229,146,49,84,123,271,169,95,1
2351,80.5093584060669,238,143,46,84,131,290,170,98,1
2352,80.5308313369751,242,147,40,77,124,286,159,82,1
2353,80.55335021018982,245,144,45,82,127,278,150,82,1
