,time,chanel1,chanel2,chanel3,chanel4,chanel5,chanel6,chanel7,chanel8,position
0,11.75536561012268,38,32,34,10,71,52,46,38,1
1,11.777448892593384,34,29,31,10,66,47,40,35,1
2,11.792480230331421,36,35,36,10,85,59,51,41,1
3,11.814865350723267,37,35,38,10,88,63,54,43,1
4,11.837517976760864,30,31,35,10,78,56,47,39,1
5,11.852456331253052,31,32,35,11,78,56,46,37,1
6,11.875235557556152,33,35,39,11,90,62,50,43,1
7,11.897395133972168,32,28,34,11,67,50,39,36,1
8,11.912460565567017,30,28,33,12,64,45,37,34,1
9,11.934914588928223,30,27,32,12,62,45,39,34,1
10,11.957598686218262,31,31,36,12,71,47,38,36,1
11,11.975756406784058,30,26,30,12,59,41,35,31,1
12,11.99538803100586,31,30,32,12,68,47,41,33,1
13,12.018011569976807,30,29,31,11,66,50,41,33,1
14,12.033328294754028,30,31,32,11,71,49,39,33,1
15,12.055145502090454,29,28,31,11,71,52,47,31,1
16,12.077419996261597,26,31,34,10,81,56,50,31,1
17,12.094851016998291,34,32,35,10,84,57,52,30,1
18,12.114983797073364,34,32,35,10,93,58,53,29,1
19,12.137380599975586,35,32,36,10,98,62,55,34,1
20,12.154269933700562,35,31,33,10,98,61,55,34,1
21,12.174977779388428,34,31,35,10,97,60,54,34,1
22,12.19693398475647,30,32,34,10,97,60,54,34,1
23,12.214267253875732,33,33,37,11,99,61,54,36,1
24,12.235360145568848,33,34,39,11,98,64,58,35,1
25,12.257821321487427,33,38,41,11,99,68,58,37,1
26,12.273875713348389,37,37,38,11,91,64,57,35,1
27,12.29456090927124,33,31,36,11,81,58,51,33,1
28,12.317780494689941,31,33,35,10,74,55,51,34,1
29,12.334574222564697,32,32,34,10,66,50,47,31,1
30,12.35470724105835,34,29,36,10,64,42,41,30,1
31,12.377623558044434,30,27,34,10,64,44,43,31,1
32,12.394498825073242,30,27,36,10,69,48,45,33,1
33,12.415598154067993,32,22,34,11,68,49,45,33,1
34,12.437606573104858,35,26,37,11,75,49,46,33,1
35,12.45447325706482,35,26,36,11,75,54,50,33,1
36,12.475181818008423,40,33,43,11,87,55,52,37,1
37,12.49845838546753,40,34,43,11,86,53,53,38,1
38,12.513692617416382,40,35,42,10,84,54,53,34,1
39,12.535074949264526,39,33,40,10,84,54,51,34,1
40,12.557528495788574,37,35,37,10,79,51,47,34,1
41,12.574988603591919,31,30,34,10,71,50,45,31,1
42,12.594916343688965,35,39,41,9,88,58,49,32,1
43,12.617701292037964,32,42,42,9,93,55,48,33,1
44,12.634570598602295,30,42,42,10,91,53,45,34,1
45,12.662734031677246,33,44,44,9,100,59,50,32,1
46,12.677709102630615,35,44,43,9,98,59,50,37,1
47,12.700632095336914,32,37,35,9,87,53,47,33,1
48,12.715229749679565,34,36,35,9,84,53,46,37,1
49,12.7374427318573,35,34,33,10,82,53,47,37,1
50,12.760004758834839,31,28,30,10,70,48,42,36,1
51,12.778066873550415,31,27,28,9,68,46,37,35,1
52,12.797730445861816,29,25,27,10,60,43,35,36,1
53,12.819971323013306,32,31,33,10,65,46,42,37,1
54,12.835533380508423,33,31,32,10,65,45,41,38,1
55,12.858258962631226,36,32,39,10,72,45,42,39,1
56,12.87941312789917,39,36,43,10,81,52,46,37,1
57,12.894997358322144,39,37,44,10,85,52,48,38,1
58,12.91759967803955,36,32,39,10,77,52,41,37,1
59,12.939965963363647,35,32,40,11,76,54,43,38,1
60,12.95519757270813,39,42,37,11,98,62,44,38,1
61,12.97788953781128,38,42,34,12,89,61,46,37,1
62,12.999663591384888,51,56,45,11,127,82,50,37,1
63,13.337608337402344,70,89,84,11,214,145,86,44,1
64,13.3603196144104,72,95,86,11,218,148,92,45,1
65,13.37507963180542,76,99,88,10,222,151,100,44,1
66,13.397794246673584,58,84,86,10,178,131,89,42,1
67,13.420133352279663,60,81,68,10,158,121,74,37,1
68,13.435505628585815,58,80,69,10,153,113,74,37,1
69,13.457592487335205,56,67,64,9,135,104,69,38,1
70,13.479990720748901,52,65,63,10,127,108,61,37,1
71,13.495023488998413,52,61,55,10,131,105,66,37,1
72,13.517914056777954,44,52,51,10,112,85,62,39,1
73,13.540220260620117,47,58,54,10,128,92,68,35,1
74,13.555233001708984,48,61,57,10,133,91,67,29,1
75,13.577032089233398,47,55,53,10,128,80,63,31,1
76,13.608712434768677,46,52,50,10,114,79,71,33,1
77,13.615331888198853,43,44,46,10,105,76,73,31,1
78,13.63770055770874,36,32,39,10,73,59,67,34,1
79,13.659507751464844,28,24,35,10,67,54,65,39,1
80,13.684310913085938,28,23,35,11,64,78,107,36,1
81,13.697559595108032,31,27,37,10,82,85,114,36,1
82,14.642906665802002,32,31,36,9,74,50,62,31,2
83,14.665203332901001,35,29,34,10,67,50,92,33,2
84,14.680795192718506,37,28,33,10,64,70,143,32,2
85,14.702610492706299,40,28,35,11,64,73,156,34,2
86,14.725219964981079,39,27,33,11,56,72,157,32,2
87,14.74007248878479,35,28,28,11,51,71,158,30,2
88,14.762817144393921,30,29,28,11,51,78,170,28,2
89,14.786246061325073,28,30,29,10,54,67,145,30,2
90,14.800283670425415,23,32,31,10,60,63,133,32,2
91,14.824023962020874,22,31,30,10,56,59,130,34,2
92,14.84526252746582,24,31,30,10,55,65,148,36,2
93,14.859783411026001,26,33,36,10,65,62,130,41,2
94,14.882858514785767,28,33,40,10,69,59,118,42,2
95,14.906259775161743,28,29,37,10,61,57,115,40,2
96,14.920325994491577,28,28,36,10,61,74,153,40,2
97,14.94251823425293,30,29,38,11,61,80,174,38,2
98,14.964598655700684,28,29,33,11,51,75,163,37,2
99,14.980445146560669,26,26,25,11,38,71,160,32,2
100,15.002092361450195,27,28,24,10,37,76,176,34,2
101,15.025148153305054,32,30,24,10,35,62,149,32,2
102,15.04020881652832,30,28,23,10,38,49,107,31,2
103,15.063000202178955,29,28,23,10,38,47,107,28,2
104,15.084856033325195,29,28,24,10,41,58,150,37,2
105,15.100479125976562,29,28,26,11,44,56,145,38,2
106,15.123074054718018,24,26,28,11,44,53,140,39,2
107,15.145281314849854,23,26,30,11,44,53,142,41,2
108,15.159827709197998,22,25,31,11,46,53,141,40,2
109,15.182316780090332,23,30,33,11,46,54,114,33,2
110,15.205528974533081,23,30,30,11,41,48,99,30,2
111,15.220463037490845,26,33,32,11,44,54,102,29,2
112,15.242676496505737,27,34,30,10,42,55,96,27,2
113,15.265299081802368,29,35,30,10,40,64,124,29,2
114,15.280305624008179,29,33,31,10,46,61,115,32,2
115,15.30263090133667,28,34,36,10,51,67,121,32,2
116,15.329039573669434,26,31,33,10,47,68,140,32,2
117,15.340494632720947,27,31,36,10,50,73,150,33,2
118,15.362827777862549,29,31,36,9,50,65,126,31,2
119,15.385695934295654,26,30,33,10,43,60,122,32,2
120,15.40043592453003,26,29,28,10,40,59,117,33,2
121,15.422722101211548,28,32,33,10,52,78,139,34,2
122,15.445738315582275,25,29,28,10,49,73,130,36,2
123,15.4600830078125,25,29,30,10,54,75,130,39,2
124,15.483412742614746,27,30,32,10,54,76,131,33,2
125,15.505446910858154,28,30,33,11,52,77,147,32,2
126,15.519778728485107,28,27,27,11,42,61,124,31,2
127,15.552080154418945,29,29,30,10,46,68,133,29,2
128,15.565519571304321,28,30,28,10,44,65,130,27,2
129,15.58854603767395,30,28,31,11,47,69,141,29,2
130,15.60220456123352,30,28,30,10,48,73,143,29,2
131,15.625558137893677,31,31,35,10,49,68,131,29,2
132,15.648653030395508,33,31,34,10,49,63,122,29,2
133,15.66290020942688,33,31,33,10,48,66,129,31,2
134,15.685710191726685,30,31,30,10,44,78,152,32,2
135,15.708654403686523,29,31,31,10,43,73,133,32,2
136,15.723015308380127,29,27,27,9,43,70,127,33,2
137,15.745402336120605,28,31,30,9,45,68,125,35,2
138,15.76881194114685,29,31,31,9,43,68,143,34,2
139,15.7821683883667,30,31,29,8,42,65,140,32,2
140,15.805262327194214,31,33,31,9,45,64,145,33,2
141,15.828198432922363,30,31,30,9,51,65,145,31,2
142,15.843133926391602,29,26,28,9,47,64,144,31,2
143,15.865821123123169,27,24,29,9,54,85,176,33,2
144,15.887711524963379,27,25,32,10,55,76,152,32,2
145,15.902891874313354,27,25,30,10,55,74,149,32,2
146,15.92533254623413,26,27,32,11,49,74,151,32,2
147,15.948065280914307,25,30,34,11,52,76,156,31,2
148,15.962912797927856,25,29,30,11,44,64,128,30,2
149,15.985724925994873,24,27,34,10,48,70,126,31,2
150,16.007899284362793,25,27,34,10,48,70,121,36,2
151,16.023766040802002,24,26,33,10,46,68,119,35,2
152,16.044956922531128,23,26,31,10,41,66,114,34,2
153,16.067989826202393,24,27,31,10,41,70,119,32,2
154,16.083028554916382,24,27,29,10,37,64,118,33,2
155,16.105289459228516,22,28,28,10,37,63,124,32,2
156,16.12798571586609,24,27,29,10,39,76,147,32,2
157,16.142664670944214,25,26,32,9,47,83,154,30,2
158,16.165781021118164,24,24,31,10,46,68,125,28,2
159,16.187744140625,25,29,29,10,51,63,131,28,2
160,16.20294165611267,27,29,31,11,54,62,127,23,2
161,16.225449323654175,26,30,32,10,52,47,105,23,2
162,16.247684717178345,26,30,30,11,45,39,95,25,2
163,16.26389169692993,28,33,33,11,55,46,86,27,2
164,16.285335779190063,28,30,34,11,55,57,122,28,2
165,16.308144569396973,25,32,33,10,54,83,149,28,2
166,16.322990894317627,27,32,33,10,57,84,148,29,2
167,16.345437049865723,25,31,32,10,56,84,150,29,2
168,16.368044137954712,24,34,32,9,52,86,158,28,2
169,16.383962869644165,23,33,30,10,48,87,153,31,2
170,16.40547204017639,26,32,30,10,51,69,132,33,2
171,16.427799463272095,26,32,29,10,47,66,130,33,2
172,16.442718505859375,29,33,33,11,50,63,126,35,2
173,16.46536874771118,27,29,31,10,48,57,117,39,2
174,16.48791193962097,29,29,30,10,50,48,102,36,2
175,16.511043071746826,26,24,29,10,45,54,111,33,2
176,16.525495529174805,27,23,30,10,46,59,115,34,2
177,16.547428369522095,24,23,28,10,49,62,120,32,2
178,16.571918487548828,27,25,29,10,53,69,143,28,2
179,16.585623025894165,27,24,30,10,53,73,133,29,2
180,16.609086990356445,30,31,33,10,61,68,121,34,2
181,16.63102078437805,29,31,31,10,60,66,119,31,2
182,16.645320415496826,31,31,31,11,57,67,117,31,2
183,16.667855262756348,32,30,33,11,53,80,138,31,2
184,16.690999031066895,31,30,32,11,50,79,135,31,2
185,16.705427169799805,29,23,31,11,39,74,133,27,2
186,16.728023290634155,28,26,32,11,40,85,157,31,2
187,16.75070357322693,28,25,31,11,38,91,179,34,2
188,16.76599955558777,24,24,30,11,51,83,152,35,2
189,16.787386655807495,25,26,33,11,54,79,149,34,2
190,16.811614751815796,24,26,32,10,55,84,156,35,2
191,16.82580280303955,24,26,33,10,59,73,132,34,2
192,16.84747052192688,21,25,32,10,61,62,96,31,2
193,16.871010303497314,21,27,30,10,49,57,106,30,2
194,16.88576602935791,23,27,31,10,49,62,111,31,2
195,16.90785789489746,26,31,33,10,54,59,105,34,2
196,16.931001663208008,27,30,31,10,53,63,111,34,2
197,16.945300579071045,28,32,32,10,50,63,112,34,2
198,16.967838525772095,30,30,30,10,48,81,149,34,2
199,16.991268157958984,29,31,26,10,53,81,152,34,2
200,17.00563144683838,27,28,23,10,46,79,150,31,2
201,17.028026580810547,28,29,25,10,45,75,144,30,2
202,17.05260181427002,29,28,24,11,45,74,145,29,2
203,17.065513134002686,31,33,27,11,49,50,93,31,2
204,17.08791708946228,30,32,28,11,42,55,120,30,2
205,17.11115002632141,30,33,30,11,44,60,130,30,2
206,17.12534236907959,30,34,32,11,53,60,130,33,2
207,17.14799165725708,30,37,35,11,58,60,131,35,2
208,17.17057991027832,31,31,33,11,54,80,173,35,2
209,17.185423612594604,30,31,34,10,58,77,150,36,2
210,17.207459211349487,30,30,32,11,55,75,143,36,2
211,17.23129940032959,32,28,28,11,44,75,144,31,2
212,17.245431423187256,32,24,26,11,41,77,145,33,2
213,17.26845645904541,29,26,25,10,47,65,120,32,2
214,17.291367530822754,30,28,28,10,45,62,124,33,2
215,17.3053240776062,30,28,27,10,47,64,126,32,2
216,17.327898740768433,29,28,27,10,46,64,122,31,2
217,17.35153079032898,30,26,28,10,46,61,117,27,2
218,17.36553382873535,32,25,29,10,41,47,78,26,2
219,17.38803005218506,31,22,25,10,40,63,106,25,2
220,17.41122269630432,32,23,28,10,42,66,113,28,2
221,17.433656930923462,31,25,27,11,45,64,114,28,2
222,17.447903394699097,31,24,24,11,43,65,114,30,2
223,17.471154928207397,29,23,24,11,46,63,113,31,2
224,17.494030714035034,30,27,27,11,46,52,112,34,2
225,17.50785207748413,30,26,25,11,48,46,107,32,2
226,17.53181743621826,29,26,26,11,47,47,107,33,2
227,17.553508758544922,29,28,29,11,48,47,109,33,2
228,17.567841053009033,31,28,31,11,48,55,116,30,2
229,17.591081380844116,29,27,30,10,47,53,102,25,2
230,17.61316442489624,27,25,29,10,41,55,104,25,2
231,17.62760853767395,29,24,29,10,41,55,103,28,2
232,17.651505708694458,31,25,28,10,44,54,101,27,2
233,17.67450976371765,28,26,27,10,40,46,93,27,2
234,17.687398433685303,28,24,26,10,40,64,140,31,2
235,17.71116828918457,29,25,28,10,40,63,137,32,2
236,17.733707666397095,31,29,31,10,44,63,140,33,2
237,17.748533010482788,25,26,28,10,42,64,142,31,2
238,17.771547555923462,27,28,27,11,45,68,147,35,2
239,17.793644428253174,27,29,29,11,43,55,113,34,2
240,17.80817747116089,28,30,28,10,46,58,117,34,2
241,17.831913232803345,26,30,28,10,43,59,122,31,2
242,17.85364842414856,28,29,29,10,42,59,119,32,2
243,17.86839723587036,27,28,31,10,38,56,114,28,2
244,17.892269372940063,27,29,29,9,41,49,101,30,2
245,17.913593769073486,26,27,28,9,35,61,122,29,2
246,17.927900552749634,27,26,27,10,38,62,118,29,2
247,17.951194763183594,24,28,27,10,39,61,122,29,2
248,17.973724603652954,25,30,27,11,42,64,125,28,2
249,17.98799180984497,24,30,28,11,41,61,112,24,2
250,18.01137948036194,25,30,28,11,41,63,130,26,2
251,18.03377938270569,22,30,26,11,38,64,131,29,2
252,18.04819416999817,23,28,27,11,38,67,139,31,2
253,18.071312427520752,24,31,30,10,41,69,136,33,2
254,18.093369722366333,24,31,32,10,49,84,165,35,2
255,18.108091592788696,25,31,34,10,56,73,131,35,2
256,18.131287813186646,25,30,35,9,56,70,132,34,2
257,18.15323781967163,25,31,36,9,57,70,141,33,2
258,18.16807198524475,22,26,33,9,56,70,151,32,2
259,18.19110083580017,23,26,30,10,50,52,118,31,2
260,18.21367835998535,24,28,32,11,48,52,117,32,2
261,18.2282657623291,22,27,32,11,48,58,131,30,2
262,18.25084900856018,20,28,31,11,52,59,113,31,2
263,18.273655652999878,22,28,33,11,52,56,99,32,2
264,18.28894329071045,21,27,32,11,50,64,124,31,2
265,18.312040090560913,19,26,30,10,47,65,128,31,2
266,18.333653688430786,22,26,28,10,46,62,123,34,2
267,18.348016023635864,23,26,29,10,41,57,118,32,2
268,18.37110948562622,22,25,28,9,42,54,116,30,2
269,18.393683433532715,23,25,27,9,42,58,126,31,2
270,18.416213035583496,27,28,35,9,50,57,130,28,2
271,18.431490182876587,26,28,36,9,54,54,117,26,2
272,18.453802824020386,28,28,36,8,55,56,119,26,2
273,18.476219177246094,27,28,36,9,49,59,121,31,2
274,18.491376161575317,26,27,36,9,49,65,120,35,2
275,18.513867139816284,26,29,33,9,47,72,118,36,2
276,18.536365509033203,27,30,32,10,45,74,117,37,2
277,18.551353931427002,26,28,31,10,43,73,115,34,2
278,18.573845863342285,28,29,32,10,49,81,132,31,2
279,18.596195936203003,28,30,33,10,49,74,138,30,2
280,18.61046838760376,26,28,28,10,40,67,135,31,2
281,18.63311767578125,24,26,29,10,40,64,134,31,2
282,18.656306505203247,28,30,34,10,55,73,144,36,2
283,18.6714026927948,29,27,33,9,53,65,131,41,2
284,18.69376254081726,29,28,33,10,54,65,121,38,2
285,18.71618366241455,27,27,33,10,57,68,133,36,2
286,18.731168746948242,28,31,36,10,62,74,143,34,2
287,18.753769397735596,25,28,30,10,50,65,133,30,2
288,18.77623724937439,26,33,34,10,63,66,129,28,2
289,18.790549993515015,26,33,35,10,71,81,164,31,2
290,18.814050436019897,30,33,37,10,73,85,159,35,2
291,18.836376428604126,29,29,35,10,66,80,153,37,2
292,18.85050868988037,33,31,38,10,70,83,154,38,2
293,18.87429404258728,31,26,31,9,59,89,174,39,2
294,18.89707851409912,31,27,33,10,53,66,115,37,2
295,18.9106924533844,28,27,30,10,47,59,110,32,2
296,18.933396577835083,30,29,30,9,49,60,113,35,2
297,18.95655059814453,26,28,29,10,51,64,121,34,2
298,18.970605611801147,29,28,31,10,54,52,103,32,2
299,18.993703603744507,30,25,28,11,49,65,131,33,2
300,19.016216278076172,32,22,27,11,49,67,130,37,2
301,19.03015923500061,34,27,28,11,53,69,134,34,2
302,19.0539288520813,33,26,26,10,46,64,126,34,2
303,19.076334953308105,30,27,26,10,43,64,129,34,2
304,19.08999490737915,36,35,31,10,57,74,134,37,2
305,19.113935947418213,33,35,32,11,60,75,130,33,2
306,19.13632035255432,31,33,34,11,63,78,124,34,2
307,19.150975704193115,30,32,33,11,61,77,125,33,2
308,19.17373776435852,32,34,34,11,62,77,134,34,2
309,19.196649312973022,27,28,35,11,59,82,165,33,2
310,19.21052098274231,29,28,34,10,55,82,179,33,2
311,19.2341787815094,29,26,31,10,49,80,182,33,2
312,19.256276845932007,29,28,31,10,55,82,185,32,2
313,19.270593643188477,29,25,31,10,55,83,177,32,2
314,19.293773889541626,29,25,27,10,48,57,119,29,2
315,19.31678032875061,27,27,31,10,54,54,95,32,2
316,19.338953971862793,29,27,33,11,55,46,82,31,2
317,19.354541540145874,28,25,32,11,50,41,72,29,2
318,19.376055002212524,27,29,32,11,51,37,48,29,2
319,19.398783683776855,27,29,32,11,51,36,63,32,2
320,19.41376304626465,29,31,30,11,49,55,94,29,2
321,19.43642020225525,31,31,30,10,46,56,101,29,2
322,19.458754777908325,33,33,30,11,46,64,117,32,2
323,19.473750829696655,32,29,30,11,44,66,134,32,2
324,19.496336936950684,34,30,32,10,44,72,146,29,2
325,19.519049882888794,34,27,33,10,46,64,149,31,2
326,19.533972024917603,30,25,32,10,46,74,168,33,2
327,19.55651330947876,28,24,33,10,47,70,165,32,2
328,19.579116582870483,28,25,34,10,50,71,165,33,2
329,19.593600034713745,26,25,34,9,57,80,183,34,2
330,19.615853309631348,23,24,30,9,51,81,191,34,2
331,19.63890266418457,22,24,29,10,49,76,180,32,2
332,19.654044151306152,28,30,31,10,54,82,187,32,2
333,19.67637276649475,27,29,30,10,51,80,178,32,2
334,19.698835134506226,27,27,27,10,43,68,156,30,2
335,19.71360731124878,30,28,29,10,51,81,148,31,2
336,19.737186670303345,32,31,34,10,55,86,150,35,2
337,19.75927186012268,29,24,33,11,56,92,156,34,2
338,19.77280306816101,30,29,37,10,64,94,160,34,2
339,19.796090126037598,30,31,40,10,71,95,182,38,2
340,19.818718433380127,30,31,39,10,65,83,174,36,2
341,19.832908153533936,30,33,39,10,65,83,191,33,2
342,19.856011390686035,33,35,36,10,60,75,198,36,2
343,19.878777980804443,34,33,34,10,56,75,195,36,2
344,19.893292903900146,38,34,33,10,49,85,238,36,2
345,19.916343450546265,36,35,33,10,50,89,244,41,2
346,19.93861985206604,36,37,33,10,60,86,225,40,2
347,19.95350170135498,33,35,37,10,67,97,225,38,2
348,19.976494550704956,38,35,36,10,72,104,269,47,2
349,19.99899697303772,38,33,34,10,73,92,216,47,2
350,20.013267517089844,42,36,40,10,78,100,234,46,2
351,20.03673028945923,42,33,39,10,75,99,230,47,2
352,20.059326171875,42,35,38,10,74,92,228,48,2
353,20.073169469833374,37,34,36,11,69,87,182,42,2
354,20.097639322280884,33,34,38,11,71,91,180,40,2
355,20.11897110939026,33,32,33,11,70,87,188,48,2
356,20.13382387161255,32,32,34,11,66,82,188,50,2
357,20.15593695640564,33,32,32,11,67,72,166,46,2
358,20.17919659614563,35,35,36,11,65,86,199,45,2
359,20.19341516494751,35,34,34,10,61,84,194,44,2
360,20.21706509590149,31,33,33,10,56,70,146,35,2
361,20.238264083862305,30,34,32,10,52,85,180,34,2
362,20.253451585769653,29,32,31,10,42,84,181,35,2
363,20.276297569274902,29,31,29,10,46,64,133,34,2
364,20.29884433746338,30,32,30,10,44,74,158,35,2
365,20.321701049804688,33,32,36,10,46,76,162,35,2
366,20.336328268051147,32,29,33,10,45,60,121,34,2
367,20.358837366104126,32,30,35,10,54,66,138,37,2
368,20.38162612915039,30,28,36,10,52,70,150,38,2
369,20.396507263183594,27,26,36,10,54,59,121,36,2
370,20.419311046600342,26,26,33,10,57,57,116,35,2
371,20.44140863418579,29,26,33,10,58,56,120,34,2
372,20.456562042236328,31,28,33,10,50,62,130,36,2
373,20.47877812385559,31,28,30,10,48,62,119,34,2
374,20.50217366218567,31,28,27,10,45,58,114,35,2
375,20.51644468307495,28,29,27,10,41,60,126,34,2
376,20.53885793685913,27,31,28,10,42,68,139,39,2
377,20.561450004577637,23,30,28,10,48,60,115,37,2
378,20.57810664176941,24,32,29,9,52,55,106,35,2
379,20.599178552627563,25,34,30,9,54,61,130,35,2
380,20.621649265289307,28,34,27,10,52,66,129,36,2
381,20.636494636535645,31,39,34,10,71,61,114,31,2
382,20.658951997756958,31,38,32,10,69,58,108,30,2
383,20.681952476501465,31,35,33,10,70,59,129,32,2
384,20.695645093917847,31,35,35,10,74,55,134,35,2
385,20.718843460083008,34,40,38,10,77,53,137,34,2
386,20.74182367324829,31,33,31,10,59,49,136,32,2
387,20.756021976470947,32,34,34,9,59,57,159,35,2
388,20.778836727142334,30,35,33,9,56,56,143,36,2
389,20.801734685897827,29,33,31,10,50,59,123,35,2
390,20.81510877609253,20,25,29,10,51,56,117,33,2
391,20.839741468429565,20,27,30,10,50,60,128,34,2
392,20.86107635498047,21,25,28,10,49,53,101,31,2
393,20.87563991546631,25,28,30,10,54,53,101,30,2
394,20.89929986000061,26,27,31,10,51,62,134,30,2
395,20.92050528526306,26,25,31,10,47,68,134,38,2
396,20.94292140007019,28,25,30,10,48,70,125,35,2
397,20.961138248443604,28,28,30,10,50,74,129,38,2
398,20.980651140213013,25,26,27,11,41,79,149,38,2
399,21.003409147262573,25,26,27,11,42,68,118,36,2
400,21.020559549331665,31,29,28,11,49,60,110,32,2
401,21.04207754135132,31,28,28,11,50,54,121,34,2
402,21.0633385181427,29,28,30,11,52,54,124,30,2
403,21.08021378517151,31,28,28,11,51,50,107,31,2
404,21.101155519485474,33,29,29,10,56,50,107,30,2
405,21.123223066329956,28,28,27,10,51,49,106,27,2
406,21.140248775482178,25,26,28,10,52,68,143,28,2
407,21.160942316055298,27,25,28,11,48,63,140,32,2
408,21.183439016342163,25,27,28,11,48,59,133,33,2
409,21.20005965232849,26,32,34,11,56,79,169,31,2
410,21.221476078033447,29,32,34,11,53,84,182,33,2
411,21.243603467941284,31,33,35,10,54,70,144,32,2
412,21.26012659072876,30,33,33,10,56,72,151,32,2
413,21.280807495117188,31,32,34,9,57,76,159,30,2
414,21.30342411994934,29,26,31,9,56,63,129,35,2
415,21.320069074630737,30,25,31,9,58,56,111,33,2
416,21.340790510177612,28,25,28,9,56,68,145,35,2
417,21.363183736801147,30,25,30,10,55,74,143,33,2
418,21.379466772079468,30,27,31,10,57,68,132,34,2
419,21.400588512420654,29,27,27,10,46,60,121,28,2
420,21.423070192337036,27,27,28,10,46,73,143,31,2
421,21.440279960632324,32,31,32,10,62,76,134,32,2
422,21.46076989173889,31,31,30,10,61,69,127,30,2
423,21.48278498649597,30,33,29,11,63,71,141,30,2
424,21.500120162963867,30,34,32,11,67,85,161,34,2
425,21.521039724349976,28,34,31,12,67,79,150,33,2
426,21.542702198028564,25,31,26,12,56,64,127,29,2
427,21.55918312072754,26,31,29,12,55,65,125,30,2
428,21.58083724975586,28,32,33,11,54,69,125,33,2
429,21.603320360183716,30,31,34,11,58,55,109,32,2
430,21.620020151138306,31,35,36,10,60,49,93,32,2
431,21.657365322113037,30,34,36,10,59,48,91,32,2
432,21.663424491882324,31,37,38,10,61,47,89,33,2
433,21.680500745773315,30,33,34,10,58,59,111,29,2
434,21.700775384902954,28,33,29,10,47,56,102,30,2
435,21.723768949508667,27,30,30,10,45,59,111,29,2
436,21.740153312683105,27,30,33,10,46,67,145,29,2
437,21.760777235031128,24,25,29,10,43,77,154,27,2
438,21.78328776359558,23,26,29,10,44,64,128,28,2
439,21.8008930683136,26,28,31,10,45,67,132,26,2
440,21.820836067199707,25,27,31,10,42,67,128,25,2
441,21.843859434127808,26,27,27,10,39,60,89,26,2
442,21.86000895500183,26,26,25,11,39,51,115,26,2
443,21.88079285621643,28,28,29,10,41,54,123,27,2
444,21.903323650360107,27,26,27,10,52,53,117,29,2
445,21.922292232513428,28,26,27,10,52,49,113,28,2
446,21.940932512283325,26,25,28,10,50,47,114,28,2
447,21.963362455368042,28,30,38,10,54,60,110,29,2
448,21.980326414108276,30,29,39,10,63,71,126,32,2
449,22.000837087631226,30,30,40,10,56,71,128,31,2
450,22.03089475631714,30,31,39,9,56,81,163,33,2
451,22.040756225585938,30,32,38,10,57,90,175,38,2
452,22.06089687347412,26,29,30,9,55,81,156,37,2
453,22.08281183242798,23,28,26,9,43,71,146,37,2
454,22.099307775497437,22,26,23,10,42,80,169,38,2
455,22.121033906936646,20,25,23,10,43,71,138,39,2
456,22.143904209136963,22,24,26,10,45,72,151,35,2
457,22.160781383514404,25,25,27,10,49,70,151,38,2
458,22.180728435516357,26,25,27,10,49,71,146,35,2
459,22.21083402633667,28,26,30,10,48,69,155,33,2
460,22.22589945793152,29,26,33,10,51,71,161,30,2
461,22.240837335586548,33,29,35,9,52,59,134,29,2
462,22.26333236694336,32,29,36,9,55,57,134,24,2
463,22.285366535186768,32,29,37,10,53,60,146,27,2
464,22.30100917816162,30,29,34,10,54,48,109,27,2
465,22.323465824127197,32,31,33,10,55,49,104,29,2
466,22.34614610671997,28,30,28,11,53,57,130,28,2
467,22.360488414764404,30,28,26,11,48,66,143,30,2
468,22.38337755203247,31,28,24,11,46,61,124,30,2
469,22.40605902671814,35,31,29,10,52,77,154,31,2
470,22.421062469482422,32,29,31,10,47,75,154,30,2
471,22.443348169326782,31,27,33,10,48,73,136,30,2
472,22.465693473815918,29,27,32,10,45,67,129,32,2
473,22.480871200561523,29,31,36,10,47,78,151,33,2
474,22.503402709960938,24,26,33,10,38,59,119,34,2
475,22.526004552841187,27,24,29,10,38,58,118,33,2
476,22.540961503982544,31,35,35,10,52,57,126,35,2
477,22.56274104118347,32,35,37,10,56,71,138,33,2
478,22.586812019348145,30,32,34,10,58,59,113,31,2
479,22.60093593597412,29,35,38,10,64,59,109,30,2
480,22.62349247932434,27,38,38,10,68,79,153,32,2
481,22.654019594192505,24,31,32,10,55,77,142,31,2
482,22.661157846450806,22,33,31,10,57,64,124,34,2
483,22.68349051475525,21,33,32,10,56,76,146,34,2
484,22.705748081207275,23,31,29,10,52,80,154,34,2
485,22.720849990844727,24,27,28,10,46,69,133,35,2
486,22.74382734298706,25,27,30,11,51,69,137,36,2
487,22.76625657081604,27,23,28,11,47,75,157,34,2
488,22.78120183944702,29,28,28,11,55,69,151,32,2
489,22.80345845222473,27,28,33,10,58,64,147,31,2
490,22.825849056243896,27,31,38,10,64,56,124,29,2
491,22.84089994430542,26,31,37,10,61,68,161,29,2
492,22.863269805908203,29,32,40,9,61,70,171,37,2
493,22.88573145866394,28,27,41,9,55,68,166,39,2
494,22.900805234909058,31,30,43,9,62,80,251,40,2
495,22.923349618911743,30,28,41,10,64,83,257,39,2
496,22.945939779281616,30,28,40,9,64,74,239,39,2
497,22.96218466758728,31,28,45,10,64,72,258,35,2
498,22.98343801498413,31,29,45,10,68,83,275,39,2
499,23.00616979598999,28,27,44,10,62,81,219,39,2
500,23.022876262664795,32,25,45,10,55,79,213,40,2
501,23.04335045814514,31,25,55,10,60,77,210,39,2
502,23.0656795501709,27,26,53,10,61,74,165,38,2
503,23.088292360305786,28,29,55,11,54,58,140,32,2
504,23.103331565856934,29,28,50,11,47,46,116,32,2
505,23.125840187072754,30,30,52,11,48,56,131,31,2
506,23.1484055519104,36,34,46,10,57,63,134,35,2
507,23.16350793838501,37,33,42,10,59,66,127,34,2
508,23.185832500457764,36,29,42,10,69,67,122,35,2
509,23.208823204040527,36,29,44,11,75,68,118,36,2
510,23.223424196243286,34,30,42,11,84,65,97,35,2
511,23.245985507965088,27,25,46,11,81,58,89,33,2
512,23.26948595046997,28,27,55,11,82,56,85,34,2
513,23.283355951309204,27,28,54,11,76,59,94,34,2
514,23.306669235229492,24,30,54,10,73,69,131,34,2
515,23.328659296035767,24,28,51,10,61,64,133,35,2
516,23.343291759490967,25,27,46,9,51,65,138,35,2
517,23.365999937057495,26,26,35,9,47,64,140,34,2
518,23.3907949924469,30,29,39,9,55,62,128,37,2
519,23.40425443649292,32,26,39,9,52,48,91,36,2
520,23.425915718078613,31,24,40,9,52,47,83,39,2
521,23.448823928833008,32,25,39,10,57,50,85,40,2
522,23.46323013305664,32,28,41,10,63,52,85,40,2
523,23.486003637313843,29,26,35,11,56,51,85,36,2
524,23.509145259857178,26,26,34,11,58,50,81,37,2
525,23.52335500717163,29,30,34,10,64,50,87,34,2
526,23.545923233032227,27,29,32,10,59,56,107,34,2
527,23.568415880203247,25,28,30,11,55,54,106,32,2
528,23.583561420440674,24,26,30,10,51,52,102,33,2
529,23.60586166381836,27,27,37,10,53,54,103,31,2
530,23.628749132156372,25,24,36,10,47,53,101,31,2
531,23.64362907409668,24,26,37,10,49,42,78,30,2
532,23.66627860069275,28,25,39,9,58,51,82,32,2
533,23.688824892044067,27,30,39,10,58,52,82,30,2
534,23.70358180999756,31,36,41,10,75,59,89,37,2
535,23.725914478302002,31,35,40,10,75,58,84,35,2
536,23.747893571853638,30,33,40,10,77,64,93,36,2
537,23.763383865356445,27,33,38,10,68,58,95,36,2
538,23.78614592552185,27,31,39,10,68,56,94,36,2
539,23.80814027786255,25,26,32,10,46,46,84,27,2
540,23.823000192642212,25,28,31,11,45,46,85,28,2
541,23.846080780029297,28,30,30,10,44,41,71,27,2
542,23.876232862472534,29,33,31,10,52,35,55,27,2
543,23.883028984069824,29,33,28,10,52,34,53,26,2
544,23.905690670013428,29,32,35,10,57,40,72,28,2
545,23.928499460220337,28,34,38,9,60,42,76,31,2
546,23.943402528762817,27,35,37,9,56,40,69,27,2
547,23.965923309326172,25,32,36,10,49,40,68,27,2
548,23.98796796798706,29,33,38,10,54,44,87,32,2
549,24.003627061843872,28,32,30,11,46,44,103,37,2
550,24.026036262512207,30,30,27,11,44,41,102,35,2
551,24.04868745803833,30,30,32,11,53,43,106,38,2
552,24.06360411643982,32,28,35,11,58,45,109,44,2
553,24.08603811264038,30,26,33,11,54,43,107,43,2
554,24.10869860649109,31,25,34,10,57,42,92,41,2
555,24.131337881088257,28,26,37,10,58,44,92,40,2
556,24.14603018760681,28,27,33,10,52,42,91,40,2
557,24.168368816375732,28,25,30,10,47,38,89,33,2
558,24.190908670425415,26,24,30,10,45,39,79,33,2
559,24.206032037734985,30,25,28,10,48,37,62,30,2
560,24.227908849716187,31,23,28,10,46,38,67,31,2
561,24.251774072647095,31,20,28,10,45,37,61,27,2
562,24.266863584518433,31,22,27,10,41,42,64,28,2
563,24.289031982421875,37,25,31,10,61,52,84,30,2
564,24.31139349937439,35,24,33,10,58,51,85,31,2
565,24.32612442970276,33,26,31,10,61,49,79,29,2
566,24.34841561317444,33,28,32,9,61,55,93,32,2
567,24.371033906936646,31,28,33,10,63,52,90,30,2
568,24.385921239852905,25,26,29,10,48,41,64,28,2
569,24.408800840377808,24,28,28,10,55,46,67,30,2
570,24.431536436080933,26,34,32,10,59,51,69,35,2
571,24.445472240447998,27,34,31,10,62,46,55,32,2
572,24.46874189376831,27,32,29,10,60,47,59,31,2
573,24.4917995929718,28,36,32,10,61,48,64,34,2
574,24.505430459976196,30,39,39,11,61,48,81,33,2
575,24.52860927581787,30,34,38,10,58,45,93,36,2
576,24.551100730895996,28,35,40,10,54,46,95,37,2
577,24.566035270690918,30,39,60,11,55,44,91,38,2
578,24.588515996932983,31,54,164,11,52,45,109,35,2
579,24.610935926437378,35,167,444,10,51,54,143,37,2
580,24.626521587371826,43,201,527,10,50,65,202,32,2
581,24.648656606674194,48,203,534,10,55,91,247,33,2
582,24.67141580581665,49,205,538,10,59,102,275,35,2
583,24.694013833999634,48,203,526,10,60,126,311,36,2
584,24.71068787574768,46,130,346,9,57,126,302,37,2
585,24.731399059295654,40,71,215,9,67,125,270,36,2
586,24.74598503112793,35,73,206,10,69,110,236,36,2
587,24.768546104431152,38,80,290,10,65,113,234,38,2
588,24.791134119033813,39,76,280,10,65,90,190,41,2
589,24.806116342544556,34,68,262,9,68,85,178,38,2
590,24.828445196151733,34,65,260,10,65,104,241,42,2
591,24.85099148750305,32,56,271,9,65,102,245,46,2
592,24.865723371505737,30,47,257,10,63,90,219,44,2
593,24.888734102249146,28,46,266,9,73,92,227,46,2
594,24.910995721817017,30,47,270,10,68,94,230,48,2
595,24.926198482513428,32,53,286,10,75,78,193,45,2
596,24.94857358932495,36,56,297,10,81,93,207,47,2
597,24.9712495803833,35,54,243,11,91,108,226,50,2
598,24.988184928894043,35,54,228,11,93,108,211,48,2
599,25.01614212989807,35,57,248,12,101,105,218,45,2
600,25.03851890563965,31,51,225,12,94,101,198,44,2
601,25.06544852256775,29,48,192,12,85,101,198,39,2
602,25.090494871139526,31,46,167,12,79,102,219,34,2
603,25.11397361755371,32,45,181,12,72,99,214,36,2
604,25.13690209388733,30,39,136,11,61,109,217,38,2
605,25.16733479499817,33,38,129,11,56,108,220,37,2
606,25.1886944770813,33,45,196,11,68,96,199,38,2
607,25.211333513259888,34,47,200,12,68,75,154,40,2
608,25.235542058944702,36,47,181,12,62,80,168,42,2
609,25.26359510421753,38,49,188,12,61,67,153,40,2
610,25.286474227905273,38,52,195,12,65,71,155,45,2
611,25.310776233673096,39,46,126,12,55,88,188,46,2
612,25.339536666870117,37,40,133,11,52,91,184,44,2
613,25.346142768859863,34,43,167,12,65,87,170,44,2
614,25.353666067123413,37,41,156,11,65,84,172,43,2
615,25.361759662628174,36,37,146,12,63,82,186,39,2
616,25.37036395072937,34,35,157,12,85,84,180,42,2
617,25.37210202217102,34,38,169,12,100,86,183,43,2
618,25.391008377075195,36,33,133,12,95,84,183,41,2
619,25.41347599029541,33,35,134,12,100,86,190,42,2
620,25.430425882339478,36,42,143,11,107,84,160,43,2
621,25.451014757156372,38,44,141,11,92,75,160,47,2
622,25.4735426902771,38,40,104,11,81,74,171,47,2
623,25.488516330718994,36,42,135,11,77,82,187,46,2
624,25.511091470718384,38,45,149,11,85,83,174,46,2
625,25.541714429855347,33,38,139,11,75,81,172,45,2
626,25.548564434051514,32,37,129,11,73,73,154,35,2
627,25.571385622024536,33,36,155,11,77,76,144,34,2
628,25.593061447143555,33,33,143,11,87,76,133,33,2
629,25.608583688735962,32,28,132,10,80,76,142,33,2
630,25.631232261657715,33,32,139,11,85,77,137,34,2
631,25.65368628501892,31,30,141,10,88,73,132,35,2
632,25.668663501739502,29,30,112,10,82,73,164,45,2
633,25.691198587417603,32,33,117,10,75,72,166,50,2
634,25.713707447052002,28,32,125,10,68,69,158,50,2
635,25.72879385948181,30,30,130,10,70,67,159,52,2
636,25.751228094100952,32,31,134,10,70,71,167,55,2
637,25.774053812026978,34,33,135,11,76,80,150,49,2
638,25.788758516311646,32,30,117,11,77,81,144,47,2
639,25.811333179473877,33,31,104,11,79,84,149,46,2
640,25.83362650871277,30,36,97,11,79,85,152,48,2
641,25.849109649658203,30,39,113,10,89,88,129,43,2
642,25.870978116989136,29,41,129,10,88,82,136,41,2
643,25.89362359046936,28,42,135,10,91,99,210,38,2
644,25.908920526504517,29,41,133,10,90,98,214,38,2
645,25.931581497192383,30,37,129,10,87,98,215,37,2
646,25.95398473739624,33,39,119,11,86,93,213,36,2
647,25.976435899734497,31,36,124,11,81,84,193,36,2
648,25.990727186203003,36,39,130,11,75,86,204,42,2
649,26.01296305656433,36,40,128,10,76,88,211,44,2
650,26.036765575408936,35,39,132,10,75,87,211,43,2
651,26.05100154876709,31,32,137,10,64,89,219,44,2
652,26.07344937324524,35,30,131,10,60,88,221,44,2
653,26.096931219100952,32,33,126,10,73,71,160,42,2
654,26.111127853393555,33,34,138,10,76,71,148,41,2
655,26.133667945861816,33,35,132,10,71,85,182,37,2
656,26.156988382339478,35,37,113,10,71,83,180,34,2
657,26.17142677307129,31,38,94,10,78,84,180,35,2
658,26.193755388259888,29,32,97,10,65,73,155,30,2
659,26.216922521591187,26,31,104,10,67,93,185,32,2
660,26.231107711791992,26,33,110,10,70,84,171,37,2
661,26.253774642944336,34,34,140,10,71,84,168,46,2
662,26.277250051498413,35,36,145,11,65,83,167,45,2
663,26.291401386260986,35,36,137,10,67,88,169,45,2
664,26.313534021377563,35,45,161,11,81,78,148,44,2
665,26.337021112442017,37,44,163,11,80,72,125,44,2
666,26.351542949676514,29,41,135,11,77,72,127,37,2
667,26.37371277809143,28,43,133,10,77,75,144,38,2
668,26.397053480148315,30,49,180,9,82,71,142,37,2
669,26.412344217300415,29,43,154,9,76,76,149,39,2
670,26.433671712875366,29,52,169,9,87,75,145,42,2
671,26.457002639770508,29,53,172,10,87,74,145,41,2
672,26.471091508865356,27,51,171,10,94,71,128,42,2
673,26.49382448196411,26,44,121,11,89,69,125,41,2
674,26.51710081100464,28,47,168,11,77,44,95,38,2
675,26.531033515930176,27,37,158,11,64,72,157,31,2
676,26.55375337600708,31,37,156,11,70,74,159,34,2
677,26.576493501663208,32,39,161,10,67,75,158,33,2
678,26.59132981300354,33,39,164,10,63,74,161,33,2
679,26.614400386810303,32,33,102,10,72,74,159,32,2
680,26.637314558029175,33,33,97,10,71,58,144,32,2
681,26.651729583740234,30,32,95,10,69,83,224,36,2
682,26.67358636856079,29,27,85,10,66,82,229,38,2
683,26.696993589401245,26,33,116,10,86,86,231,39,2
684,26.711217403411865,25,32,130,10,80,87,232,41,2
685,26.733641624450684,25,33,125,10,82,86,217,41,2
686,26.75691056251526,28,35,127,10,82,78,168,40,2
687,26.771775007247925,26,37,132,10,78,80,168,38,2
688,26.793627500534058,28,32,107,10,61,77,163,37,2
689,26.817301273345947,29,33,100,10,59,73,156,37,2
690,26.83129644393921,30,33,90,9,63,69,143,38,2
691,26.853652477264404,27,34,124,9,62,69,121,34,2
692,26.87694478034973,27,39,139,10,66,66,112,33,2
693,26.891143798828125,28,40,138,10,65,74,163,39,2
694,26.913711309432983,30,39,140,10,66,79,172,40,2
695,26.93691372871399,28,39,144,10,57,75,169,39,2
696,26.959393978118896,30,38,116,10,58,60,150,41,2
697,26.973161935806274,31,35,103,9,58,69,174,42,2
698,26.99700427055359,29,34,113,10,54,71,152,36,2
699,27.01943826675415,28,37,118,10,52,69,142,34,2
700,27.034563064575195,30,40,123,11,70,72,139,33,2
701,27.056869745254517,28,38,120,11,65,72,141,28,2
702,27.07936668395996,30,37,117,11,65,64,120,31,2
703,27.093742847442627,31,38,112,11,71,47,82,31,2
704,27.11689782142639,31,36,102,11,78,58,113,37,2
705,27.139470100402832,30,33,94,10,62,70,134,40,2
706,27.154124975204468,32,35,97,10,60,69,131,44,2
707,27.176888942718506,34,35,100,10,68,70,126,41,2
708,27.199479818344116,33,35,102,10,63,76,136,43,2
709,27.213696002960205,31,34,117,10,54,66,112,40,2
710,27.237262725830078,34,35,120,9,52,54,96,39,2
711,27.25942373275757,33,36,122,10,62,62,104,39,2
712,27.273950815200806,30,32,114,10,52,85,166,42,2
713,27.296950578689575,33,34,109,10,60,85,173,45,2
714,27.319310665130615,33,34,85,9,62,86,173,46,2
715,27.333732843399048,31,34,84,9,64,85,172,43,2
716,27.35691547393799,31,33,75,9,57,80,170,39,2
717,27.381197690963745,32,36,108,9,65,57,142,39,2
718,27.394593477249146,31,32,104,9,60,51,126,34,2
719,27.416207551956177,30,34,111,9,76,79,151,36,2
720,27.43971586227417,28,32,108,9,75,84,167,41,2
721,27.453765153884888,30,33,115,9,78,85,163,42,2
722,27.476969242095947,29,36,124,9,73,81,130,40,2
723,27.499598741531372,27,36,128,9,77,82,129,41,2
724,27.51367735862732,27,34,132,9,77,57,114,41,2
725,27.53658652305603,28,34,142,10,81,60,97,38,2
726,27.55881690979004,26,31,137,10,82,64,115,42,2
727,27.573427200317383,28,24,101,11,85,71,123,45,2
728,27.596438884735107,29,25,99,11,82,77,127,42,2
729,27.619476318359375,35,25,88,11,76,79,139,41,2
730,27.63321542739868,35,29,78,10,75,71,131,42,2
731,27.656646966934204,40,32,98,10,74,65,114,43,2
732,27.678884029388428,38,32,103,10,68,66,175,47,2
733,27.693974018096924,39,33,95,10,73,62,186,51,2
734,27.716240167617798,35,37,95,10,75,57,169,52,2
735,27.73964214324951,37,41,95,10,74,56,169,52,2
736,27.754154920578003,31,38,73,10,73,60,178,50,2
737,27.775843381881714,33,37,69,10,72,60,187,53,2
738,27.799835920333862,33,39,85,10,68,59,186,47,2
739,27.81384038925171,33,35,89,10,54,59,186,45,2
740,27.8365318775177,35,29,84,10,51,61,187,47,2
741,27.85954976081848,36,33,121,10,55,57,179,48,2
742,27.881906986236572,38,32,122,10,59,52,105,38,2
743,27.896416664123535,36,28,112,10,56,46,82,39,2
744,27.9196879863739,36,30,120,9,62,83,165,39,2
745,27.94206142425537,33,27,133,10,63,95,205,43,2
746,27.95625114440918,32,27,123,9,58,97,206,41,2
747,27.9796359539032,27,27,121,10,56,94,204,39,2
748,28.001933813095093,27,28,130,11,58,99,208,39,2
749,28.016489505767822,28,36,155,11,59,69,152,42,2
750,28.04004168510437,28,48,164,11,67,51,85,36,2
751,28.061999082565308,26,46,161,12,71,50,95,37,2
752,28.076547622680664,27,47,162,11,82,74,164,40,2
753,28.09980869293213,26,49,161,11,81,72,160,39,2
754,28.122440814971924,30,46,133,11,81,71,157,35,2
755,28.136511087417603,29,36,105,10,73,71,159,34,2
756,28.159307718276978,33,37,93,10,71,70,153,33,2
757,28.18190026283264,32,38,96,10,72,50,82,31,2
758,28.204636335372925,33,35,106,10,71,45,78,35,2
759,28.219236373901367,29,31,104,10,66,45,87,35,2
760,28.242868900299072,30,36,120,10,76,54,95,36,2
761,28.26390266418457,28,33,120,10,75,54,99,34,2
762,28.27957558631897,28,30,127,11,60,48,89,37,2
763,28.302025318145752,28,32,116,11,73,49,89,36,2
764,28.316794872283936,28,34,110,11,78,54,109,39,2
765,28.3394775390625,24,32,97,11,70,50,127,38,2
766,28.362239360809326,22,32,93,11,67,49,120,38,2
767,28.37628173828125,20,32,89,10,75,48,124,37,2
768,28.39942169189453,19,31,87,10,66,55,127,39,2
769,28.422653675079346,22,32,96,10,59,55,113,36,2
770,28.436423301696777,27,27,89,10,59,52,88,36,2
771,28.460376262664795,28,32,129,10,68,56,111,37,2
772,28.482836723327637,29,33,132,10,59,56,111,35,2
773,28.495787382125854,29,34,133,10,59,53,117,30,2
774,28.51897621154785,30,34,127,10,76,63,125,31,2
775,28.542118072509766,29,37,137,10,77,63,126,36,2
776,28.55660390853882,28,34,103,10,73,64,153,38,2
777,28.579602241516113,29,34,93,10,71,67,156,42,2
778,28.602102041244507,30,34,87,9,74,67,155,48,2
779,28.61623477935791,26,31,94,10,54,55,142,46,2
780,28.639493703842163,24,31,86,10,60,57,140,43,2
781,28.662864446640015,24,30,84,10,55,52,93,39,2
782,28.67733073234558,25,29,84,10,67,46,84,38,2
783,28.69961142539978,24,28,80,11,64,58,123,35,2
784,28.722285270690918,26,29,72,10,70,61,138,41,2
785,28.736412525177002,26,27,73,11,62,62,141,38,2
786,28.759618759155273,26,28,71,11,78,63,140,44,2
787,28.782350778579712,29,32,71,11,80,67,141,46,2
788,28.796399116516113,29,31,72,11,78,55,99,44,2
789,28.819607734680176,31,28,69,10,77,58,93,41,2
790,28.84220242500305,35,31,65,10,82,57,89,45,2
791,28.86613440513611,36,33,85,10,66,52,83,40,2
792,28.87908363342285,34,28,82,10,52,49,85,38,2
793,28.902318954467773,36,31,87,10,55,50,88,42,2
794,28.924676418304443,34,33,96,10,51,44,73,44,2
795,28.940021276474,31,32,94,10,49,42,66,44,2
796,28.962034463882446,32,30,92,10,50,43,67,46,2
797,28.984671354293823,31,30,99,10,54,44,65,46,2
798,28.999653816223145,31,26,97,10,47,60,123,44,2
799,29.023175716400146,33,31,94,10,52,64,130,44,2
800,29.044532299041748,32,29,99,10,56,67,134,40,2
801,29.059547185897827,33,33,92,10,64,70,144,39,2
802,29.082273244857788,35,33,83,10,73,73,149,38,2
803,29.104737043380737,34,34,81,10,76,61,116,38,2
804,29.119622945785522,32,32,78,10,75,64,140,35,2
805,29.149614572525024,35,37,101,10,73,66,143,36,2
806,29.164721250534058,34,38,103,10,83,69,146,41,2
807,29.179470539093018,30,36,100,10,76,66,138,44,2
808,29.202004432678223,28,38,109,10,75,65,130,41,2
809,29.224619388580322,26,35,108,10,73,56,93,41,2
810,29.23881769180298,23,33,130,10,72,51,87,43,2
811,29.262189388275146,22,28,124,10,59,53,79,41,2
812,29.284631967544556,24,30,131,10,56,52,83,38,2
813,29.299206495285034,26,32,131,10,57,61,111,40,2
814,29.322224378585815,26,33,131,10,63,65,125,39,2
815,29.34639310836792,29,29,96,10,62,64,126,37,2
816,29.35846734046936,27,32,95,10,65,59,126,34,2
817,29.381837368011475,29,31,87,10,61,61,147,33,2
818,29.40449833869934,30,31,77,10,64,53,138,34,2
819,29.41885232925415,35,30,85,10,60,48,157,51,2
820,29.44208288192749,33,30,76,9,56,50,162,53,2
821,29.46463370323181,34,31,81,9,64,51,159,54,2
822,29.48682188987732,34,30,79,10,68,46,137,53,2
823,29.50258755683899,31,27,85,10,81,46,128,53,2
824,29.524776697158813,24,26,80,10,94,55,132,39,2
825,29.53903341293335,26,31,91,11,94,54,124,35,2
826,29.562270164489746,28,37,110,10,110,52,143,45,2
827,29.584614753723145,27,37,110,10,111,51,148,46,2
828,29.59916377067566,29,38,108,10,110,52,151,43,2
829,29.622057914733887,30,39,106,10,103,44,140,40,2
830,29.652524948120117,31,37,94,10,102,42,142,41,2
831,29.658750534057617,28,30,63,11,80,51,133,29,2
832,29.68212389945984,33,32,104,10,77,54,132,31,2
833,29.704867601394653,31,31,106,10,60,51,124,32,2
834,29.718958377838135,32,31,107,10,58,49,106,33,2
835,29.74268651008606,33,37,137,10,61,51,120,40,2
836,29.764744520187378,32,36,144,10,58,47,116,40,2
837,29.78691077232361,34,34,120,10,55,46,112,38,2
838,29.802314281463623,35,36,141,11,57,52,133,37,2
839,29.82474398612976,34,35,158,11,58,53,125,38,2
840,29.847449779510498,37,36,145,11,86,58,113,32,2
841,29.862134218215942,37,37,138,11,88,55,103,33,2
842,29.884735345840454,32,40,140,11,93,57,107,35,2
843,29.90702533721924,34,38,121,10,92,64,142,38,2
844,29.92228412628174,38,44,105,10,89,64,147,38,2
845,29.944032430648804,35,40,94,10,67,59,144,38,2
846,29.966529846191406,35,38,95,10,62,57,145,40,2
847,29.982097625732422,35,41,109,10,72,54,142,40,2
848,30.004688024520874,31,42,108,10,79,42,86,35,2
849,30.026549577713013,33,36,113,9,78,48,129,39,2
850,30.042224168777466,33,38,120,9,80,53,138,39,2
851,30.064807415008545,31,39,120,9,79,53,138,39,2
852,30.087668657302856,31,35,105,9,65,57,141,37,2
853,30.102202892303467,31,34,104,9,63,62,144,40,2
854,30.12498641014099,24,36,91,9,64,68,141,40,2
855,30.147245168685913,23,35,76,9,59,65,130,37,2
856,30.161508083343506,25,38,91,9,56,74,151,34,2
857,30.184958696365356,27,37,95,9,56,71,149,35,2
858,30.207258224487305,30,42,94,10,69,70,155,39,2
859,30.22152590751648,28,40,92,10,69,59,128,35,2
860,30.24506163597107,29,39,108,10,71,71,154,36,2
861,30.26724886894226,27,35,105,10,73,63,132,38,2
862,30.28143811225891,26,39,107,10,80,65,131,39,2
863,30.305103540420532,29,34,108,9,65,62,120,37,2
864,30.327510118484497,31,35,114,10,63,61,117,39,2
865,30.34121346473694,32,32,101,9,60,46,88,39,2
866,30.364140272140503,35,34,105,9,67,45,86,38,2
867,30.38723349571228,36,30,103,9,74,42,102,37,2
868,30.400940418243408,32,31,93,10,78,39,96,36,2
869,30.42499279975891,35,35,106,10,97,50,95,35,2
870,30.4468092918396,35,36,104,11,98,49,90,35,2
871,30.46085524559021,35,38,101,11,98,49,91,38,2
872,30.484854698181152,34,40,118,11,91,48,81,37,2
873,30.507637977600098,36,42,122,10,89,51,87,34,2
874,30.52108645439148,32,37,107,10,71,53,110,35,2
875,30.54520845413208,33,38,110,10,70,55,124,38,2
876,30.567593336105347,31,35,110,10,61,59,136,40,2
877,30.581281661987305,30,33,87,10,62,61,137,39,2
878,30.604116678237915,28,31,94,10,59,62,142,40,2
879,30.634087800979614,30,32,94,10,57,52,136,38,2
880,30.64241051673889,32,31,90,9,61,52,146,36,2
881,30.664589881896973,33,30,84,9,61,48,143,34,2
882,30.68729043006897,35,30,85,10,56,44,136,37,2
883,30.70142912864685,34,28,77,10,58,43,128,38,2
884,30.72473382949829,37,30,116,10,60,46,111,40,2
885,30.746708154678345,35,31,118,10,52,43,82,37,2
886,30.770260095596313,36,29,113,10,58,59,115,36,2
887,30.78480839729309,35,37,126,10,67,64,121,36,2
888,30.807281970977783,36,41,130,9,72,64,121,33,2
889,30.82986330986023,34,39,95,10,67,64,122,31,2
890,30.84486985206604,35,38,92,9,74,67,125,33,2
891,30.86726999282837,34,39,94,9,80,72,117,35,2
892,30.890093088150024,32,30,92,10,75,73,121,33,2
893,30.90513277053833,34,25,93,10,67,77,129,34,2
894,30.92716145515442,39,29,95,10,78,78,150,46,2
895,30.949635982513428,37,32,103,10,74,78,162,45,2
896,30.965728282928467,37,30,104,10,65,64,145,44,2
897,30.986167669296265,38,34,107,10,63,58,139,45,2
898,31.008535623550415,36,34,106,10,65,50,133,48,2
899,31.026251316070557,29,32,111,10,55,49,118,42,2
900,31.04661750793457,28,34,109,11,77,52,93,44,2
901,31.06925392150879,28,39,111,12,80,51,90,42,2
902,31.086243867874146,27,36,117,12,81,56,105,42,2
903,31.107007265090942,28,36,116,11,81,65,117,39,2
904,31.129265546798706,30,37,116,11,88,66,107,36,2
905,31.14589214324951,29,34,124,11,69,62,116,33,2
906,31.166507959365845,28,28,121,10,63,61,112,34,2
907,31.18990993499756,27,33,128,10,62,64,129,33,2
908,31.207384824752808,24,32,127,11,59,56,118,31,2
909,31.228647470474243,28,30,122,11,47,50,119,33,2
910,31.24906873703003,29,28,115,11,49,47,111,35,2
911,31.26632857322693,30,29,126,11,59,57,121,36,2
912,31.28901243209839,32,26,100,10,57,57,111,40,2
913,31.309221506118774,34,28,95,11,55,57,116,43,2
914,31.326084852218628,30,31,95,11,59,58,116,38,2
915,31.34845471382141,30,32,85,10,61,63,121,37,2
916,31.369149684906006,30,33,77,10,61,61,120,37,2
917,31.38610529899597,30,33,84,10,60,53,99,34,2
918,31.41092824935913,30,30,109,10,63,56,118,33,2
919,31.429269790649414,31,27,109,10,63,68,146,43,2
920,31.44624614715576,31,29,114,10,71,64,143,43,2
921,31.47020125389099,30,28,107,10,68,58,137,43,2
922,31.488679885864258,27,32,119,10,73,58,135,41,2
923,31.506200313568115,26,32,102,9,76,56,112,42,2
924,31.535941123962402,26,32,107,9,84,63,97,40,2
925,31.548990726470947,25,29,103,10,72,69,107,39,2
926,31.564882040023804,27,35,123,10,72,69,107,38,2
927,31.589338302612305,28,30,101,11,82,75,111,40,2
928,31.608962297439575,31,32,102,11,80,75,142,43,2
929,31.626115322113037,29,31,114,11,71,61,134,40,2
930,31.649752855300903,31,34,112,11,73,58,125,39,2
931,31.669459342956543,29,33,91,11,75,53,121,38,2
932,31.691434860229492,33,36,106,11,76,53,131,39,2
933,31.70761775970459,30,37,99,11,75,52,98,36,2
934,31.728826761245728,33,37,84,10,72,51,107,37,2
935,31.751866579055786,34,36,100,10,73,53,118,37,2
936,31.768938779830933,36,35,100,10,72,55,127,44,2
937,31.78906011581421,33,35,87,10,55,51,120,43,2
938,31.811138153076172,37,35,90,10,58,57,158,51,2
939,31.828995943069458,35,34,88,11,62,54,149,49,2
940,31.849191427230835,34,34,76,11,60,53,144,51,2
941,31.871577501296997,35,32,82,11,58,54,143,49,2
942,31.889060974121094,34,31,93,11,56,56,142,48,2
943,31.908562421798706,30,29,92,11,65,53,97,37,2
944,31.93218994140625,29,31,109,10,63,52,87,36,2
945,31.948667526245117,30,32,117,10,64,48,81,34,2
946,31.96910572052002,30,36,119,10,85,55,78,31,2
947,31.992019653320312,28,34,113,10,84,52,70,30,2
948,32.00916814804077,29,34,114,11,74,59,120,31,2
949,32.028990268707275,30,38,100,11,76,61,127,31,2
950,32.051634311676025,29,37,89,11,76,60,125,30,2
951,32.06783127784729,26,36,86,11,51,59,137,35,2
952,32.08974099159241,27,37,85,12,56,60,139,35,2
953,32.11171102523804,28,38,87,11,59,57,121,35,2
954,32.127421855926514,31,37,102,11,71,63,121,36,2
955,32.149147033691406,32,42,128,11,85,71,128,38,2
956,32.17168474197388,35,42,132,11,107,74,120,41,2
957,32.18885254859924,35,42,140,11,110,79,138,46,2
958,32.20918035507202,34,41,143,11,108,75,127,45,2
959,32.23199725151062,32,39,140,11,100,70,121,47,2
960,32.24845623970032,30,33,115,10,90,68,124,46,2
961,32.26961374282837,29,31,115,10,64,73,148,41,2
962,32.29169034957886,29,33,104,10,58,70,140,35,2
963,32.30948758125305,32,33,101,10,67,68,146,36,2
964,32.3293137550354,34,34,91,10,73,72,158,41,2
965,32.35142207145691,35,36,94,10,78,73,150,41,2
966,32.36945581436157,32,36,85,10,75,62,140,41,2
967,32.38913869857788,32,35,88,10,73,58,130,43,2
968,32.41165566444397,31,38,79,10,72,56,118,45,2
969,32.42851781845093,31,36,82,10,66,56,105,37,2
970,32.44921016693115,32,37,86,10,61,56,117,41,2
971,32.471874952316284,32,42,92,11,62,49,86,37,2
972,32.489564180374146,32,45,93,10,67,50,88,39,2
973,32.50932288169861,33,48,110,10,68,51,82,36,2
974,32.53169059753418,29,52,130,10,77,51,84,38,2
975,32.54871082305908,30,51,134,10,80,48,70,35,2
976,32.56925582885742,31,50,151,10,80,51,88,34,2
977,32.5917751789093,35,52,152,10,83,56,105,36,2
978,32.60864019393921,35,49,144,10,93,68,139,38,2
979,32.628700733184814,36,44,152,10,84,67,153,42,2
980,32.65194010734558,35,42,149,10,76,65,155,42,2
981,32.68269348144531,33,38,130,10,79,65,147,44,2
982,32.68957996368408,28,31,138,9,76,60,135,42,2
983,32.71177268028259,24,26,133,10,59,51,104,41,2
984,32.734877586364746,30,26,94,9,60,46,76,35,2
985,32.74865651130676,29,29,105,10,62,46,65,34,2
986,32.77232360839844,30,27,99,10,55,42,57,36,2
987,32.79413056373596,29,26,81,10,48,41,59,32,2
988,32.80934405326843,30,26,87,10,44,36,52,30,2
989,32.83157444000244,25,25,91,11,47,36,48,36,2
990,32.85439348220825,26,25,75,10,53,38,55,35,2
991,32.86904048919678,28,26,95,10,53,45,66,35,2
992,32.89239454269409,32,33,105,10,67,47,65,38,2
993,32.92186903953552,33,36,110,10,77,50,68,39,2
994,33.09412455558777,23,39,111,10,93,42,65,38,2
995,33.109312295913696,26,40,112,10,94,39,59,37,2
996,33.13167953491211,28,38,107,10,81,45,64,34,2
997,33.154165506362915,27,37,113,10,53,42,52,26,2
998,33.47737717628479,27,29,109,9,50,74,170,39,2
999,33.49196743965149,33,35,90,10,56,73,170,37,2
1000,33.514832735061646,33,34,85,10,61,63,152,37,2
1001,33.529563188552856,35,36,88,11,60,49,85,32,2
1002,33.551591634750366,32,34,82,11,62,45,73,31,2
1003,33.57681679725647,32,35,99,11,61,39,64,29,2
1004,33.59703183174133,37,40,101,10,77,52,88,37,2
1005,33.61163544654846,38,44,109,10,77,54,96,40,2
1006,33.63450789451599,36,44,105,10,78,52,92,39,2
1007,33.65696859359741,38,44,107,10,78,54,93,39,2
1008,33.671756744384766,39,45,93,10,88,56,95,40,2
1009,33.69430446624756,31,36,85,10,76,50,77,34,2
1010,33.71621298789978,30,35,80,10,80,47,59,26,2
1011,33.73141264915466,31,33,74,11,79,47,59,28,2
1012,33.75756359100342,32,34,102,10,78,47,58,28,2
1013,33.77700996398926,28,32,99,10,71,69,116,28,2
1014,33.79186797142029,29,33,94,10,73,75,125,28,2
1015,35.59174847602844,25,30,81,11,78,114,263,38,2
1016,35.61449670791626,27,31,83,15,74,94,218,41,2
1017,35.62934589385986,38,33,82,20,63,99,231,42,2
1018,35.644775390625,46,37,74,23,64,92,221,41,2
1019,35.661306619644165,53,37,59,25,59,99,221,49,2
1020,35.682058334350586,56,39,70,26,73,98,226,48,2
1021,35.697049617767334,55,39,69,25,78,100,239,54,2
1022,35.71953463554382,50,36,68,23,78,118,284,59,2
1023,35.74193835258484,45,31,67,21,80,121,293,73,2
1024,35.757203817367554,44,30,80,20,77,104,269,76,2
1025,35.77969694137573,43,30,76,19,86,122,292,83,2
1026,35.801928758621216,49,28,78,18,82,122,283,88,2
1027,35.81656265258789,50,29,108,17,86,98,223,87,2
1028,35.8392870426178,50,29,122,18,92,110,261,76,2
1029,35.861963987350464,44,28,116,18,99,123,280,71,2
1030,35.877071380615234,43,30,112,17,84,102,239,66,2
1031,35.89946746826172,38,35,110,18,87,113,303,52,2
1032,35.92192459106445,36,35,85,18,115,129,327,46,2
1033,35.93707823753357,36,37,69,17,109,119,298,53,2
1034,35.96183204650879,36,39,66,16,102,109,293,50,2
1035,35.982170820236206,34,36,75,15,102,112,299,44,2
1036,35.99701476097107,33,34,88,15,98,100,236,45,2
1037,36.01903748512268,34,32,84,14,61,89,215,48,2
1038,36.04166579246521,37,36,82,13,69,94,238,42,2
1039,36.05699968338013,36,34,96,13,74,93,216,41,2
1040,36.08745789527893,37,36,97,12,76,91,216,42,2
1041,36.10210561752319,41,42,84,11,91,95,221,48,2
1042,36.116943359375,43,44,84,10,110,109,241,49,2
1043,36.139530420303345,39,41,92,9,110,108,213,50,2
1044,36.162057638168335,37,40,79,8,110,104,205,49,2
1045,36.176915645599365,38,38,69,11,110,112,221,49,2
1046,36.19947385787964,38,37,91,20,104,111,212,45,2
1047,36.22291564941406,37,38,93,27,81,88,186,47,2
1048,36.239522218704224,45,39,88,33,82,91,184,53,2
1049,36.25961875915527,53,42,88,38,80,99,192,55,2
1050,36.28214716911316,62,54,115,41,96,86,158,59,2
1051,36.29740262031555,65,54,118,39,107,80,152,62,2
1052,36.31955432891846,64,52,118,34,106,78,142,57,2
1053,36.34192872047424,61,55,119,29,115,128,282,56,2
1054,36.35687208175659,56,54,124,22,115,130,286,57,2
1055,36.38026142120361,45,44,103,12,101,130,294,59,2
1056,36.40178871154785,36,40,86,6,88,131,300,59,2
1057,36.42445635795593,38,38,82,4,88,136,308,63,2
1058,36.43958330154419,37,36,79,4,94,91,192,62,2
1059,36.461376428604126,39,35,66,4,99,90,204,64,2
1060,36.48444128036499,42,37,80,5,111,91,197,60,2
1061,36.49980163574219,44,44,111,5,107,100,212,57,2
1062,36.52177977561951,46,46,117,5,111,112,233,58,2
1063,36.54414629936218,44,44,116,4,94,108,233,58,2
1064,36.59389662742615,42,43,121,10,102,118,250,60,2
1065,36.597617626190186,42,45,125,19,88,124,284,61,2
1066,36.60514783859253,40,41,96,22,87,120,284,61,2
1067,36.61974120140076,34,40,92,23,89,103,261,64,2
1068,36.642367124557495,36,47,95,24,123,112,262,65,2
1069,36.66476511955261,34,47,101,22,120,101,246,58,2
1070,36.67903757095337,27,45,120,16,132,95,207,56,2
1071,36.7015335559845,30,44,120,13,135,89,181,53,2
1072,36.725191593170166,34,46,126,14,154,115,211,43,2
1073,36.73942828178406,32,40,128,13,136,109,206,43,2
1074,36.76194763183594,34,39,122,13,131,100,181,53,2
1075,36.785236120224,36,35,85,12,119,97,178,55,2
1076,36.799647092819214,34,33,78,11,120,105,196,59,2
1077,36.822266578674316,36,28,74,8,93,82,163,66,2
1078,36.845094203948975,39,30,77,6,74,81,190,68,2
1079,36.86005473136902,38,32,84,5,69,80,191,63,2
1080,36.88219928741455,38,33,91,5,67,91,215,65,2
1081,36.90534424781799,44,40,92,5,61,96,244,63,2
1082,36.919633865356445,40,40,82,6,56,89,225,55,2
1083,36.94229483604431,38,39,74,9,75,89,194,48,2
1084,36.965410232543945,37,41,80,10,96,106,227,47,2
1085,36.97956991195679,41,43,73,11,96,111,228,42,2
1086,37.00215721130371,36,38,71,12,100,101,184,42,2
1087,39.08823251724243,57,51,36,10,84,46,50,30,1
1088,39.11059808731079,58,49,31,11,90,49,54,28,1
1089,39.124470710754395,53,47,34,11,77,41,50,27,1
1090,39.14779734611511,54,46,37,11,82,45,58,36,1
1091,39.17012143135071,47,40,40,12,75,44,54,37,1
1092,39.184802770614624,45,41,44,11,78,45,54,40,1
1093,39.20826506614685,49,47,45,11,93,49,56,42,1
1094,39.237743854522705,63,54,46,10,112,51,56,51,1
1095,39.2441303730011,65,67,41,10,106,54,61,63,1
1096,39.26813554763794,65,70,41,10,109,55,63,63,1
1097,39.29049801826477,67,72,39,10,113,54,64,66,1
1098,39.31346249580383,73,76,41,10,95,49,61,71,1
1099,39.32755661010742,63,80,45,10,83,49,70,72,1
1100,39.35078454017639,56,71,45,10,84,45,61,56,1
1101,39.37294244766235,57,67,49,10,87,48,63,64,1
1102,39.38723349571228,56,67,48,10,78,48,61,61,1
1103,39.41047120094299,55,65,49,10,80,51,81,64,1
1104,39.43284273147583,59,58,51,10,82,58,85,63,1
1105,39.447821378707886,62,56,54,10,84,56,86,66,1
1106,39.47071981430054,61,56,49,10,78,53,82,58,1
1107,40.35580635070801,39,44,47,10,147,55,48,37,1
1108,40.37140345573425,39,42,42,10,134,50,47,37,1
1109,40.39289689064026,41,45,38,11,110,51,49,35,1
1110,40.41575479507446,42,46,38,11,100,50,51,34,1
1111,40.43029236793518,42,42,41,11,77,49,47,37,1
1112,40.453041076660156,38,39,32,11,78,48,46,35,1
1113,40.475382804870605,37,38,42,10,91,52,52,39,1
1114,41.19490718841553,36,41,46,11,114,52,46,37,1
1115,41.21749520301819,36,42,42,11,107,47,39,32,1
1116,41.23405694961548,38,41,45,11,111,47,40,35,1
1117,41.254603147506714,35,42,44,10,110,50,48,34,1
1118,41.277867555618286,40,37,42,11,106,51,46,37,1
1119,41.29466915130615,42,37,40,11,93,52,46,38,1
1120,41.31470227241516,48,47,50,11,116,68,63,47,1
1121,41.33721041679382,46,47,48,12,114,67,64,48,1
1122,41.36214780807495,47,44,46,12,111,67,59,47,1
1123,41.374908208847046,44,46,50,12,118,73,63,46,1
1124,41.39795780181885,47,49,51,11,125,75,65,45,1
1125,41.41397476196289,39,36,39,11,104,57,48,37,1
1126,41.434839487075806,43,36,43,11,108,59,46,35,1
1127,41.45746898651123,42,35,42,11,110,59,47,35,1
1128,41.475279331207275,45,33,37,10,96,47,44,34,1
1129,41.494359493255615,45,39,43,10,97,56,49,33,1
1130,41.52488827705383,46,46,44,10,104,60,52,31,1
1131,41.53400921821594,42,46,46,9,95,57,50,33,1
1132,41.55485200881958,44,48,46,9,98,54,50,33,1
1133,41.57727098464966,45,52,52,9,124,65,59,36,1
1134,41.59456658363342,43,46,46,9,114,56,55,36,1
1135,41.61471247673035,42,39,47,9,108,54,52,37,1
1136,41.63860845565796,47,44,46,9,121,65,62,36,1
1137,41.653199434280396,50,48,48,10,124,72,62,38,1
1138,41.67576599121094,48,47,43,10,105,63,55,32,1
1139,41.69736075401306,46,46,44,11,112,61,52,32,1
1140,41.71531081199646,51,55,46,12,127,67,57,37,1
1141,41.734586238861084,46,51,41,11,115,60,54,34,1
1142,41.75746726989746,46,50,41,11,116,54,57,35,1
1143,41.77482271194458,45,51,52,11,136,64,66,39,1
1144,41.79448390007019,45,53,52,11,132,64,66,40,1
1145,41.81690263748169,42,50,49,11,119,61,64,35,1
1146,41.8346734046936,41,47,53,11,131,56,59,37,1
1147,41.855299949645996,47,52,58,11,134,66,62,39,1
1148,41.877471685409546,47,49,46,10,107,54,48,35,1
1149,41.90208649635315,49,50,46,10,109,53,50,32,1
1150,41.91685199737549,49,48,53,11,122,61,56,36,1
1151,41.937562227249146,50,49,49,11,116,65,59,36,1
1152,41.95429301261902,43,40,43,11,105,54,51,32,1
1153,41.976853370666504,43,44,45,10,113,59,57,33,1
1154,41.99746584892273,42,40,47,11,112,60,57,33,1
1155,42.014641523361206,42,37,39,11,94,48,46,29,1
1156,42.03506565093994,42,42,45,10,92,50,47,29,1
1157,42.0580370426178,42,45,51,10,110,59,50,31,1
1158,42.07577157020569,43,43,50,10,107,52,44,31,1
1159,42.09486198425293,42,44,49,10,107,52,45,31,1
1160,42.1168315410614,39,41,52,10,104,53,45,30,1
1161,42.140933990478516,41,36,46,10,95,44,38,28,1
1162,42.15475606918335,38,33,43,10,78,39,42,32,1
1163,42.17755436897278,32,30,45,10,71,44,43,31,1
1164,42.200804471969604,32,34,50,11,97,50,45,34,1
1165,42.214406967163086,37,41,47,11,98,50,45,35,1
1166,42.2367205619812,41,44,48,11,102,54,48,37,1
1167,42.25957131385803,40,47,47,11,103,50,44,33,1
1168,42.27459478378296,41,48,46,12,116,53,42,33,1
1169,42.297417402267456,43,46,40,11,96,48,42,33,1
1170,42.31976771354675,41,42,38,11,93,49,44,33,1
1171,42.335143089294434,35,41,37,11,89,47,45,32,1
1172,42.35732316970825,40,40,38,11,89,54,47,34,1
1173,42.37984657287598,44,39,36,10,66,48,47,34,1
1174,42.39481997489929,43,39,37,11,69,50,44,31,1
1175,42.417948961257935,42,41,41,11,70,50,43,31,1
1176,42.439884662628174,40,38,41,11,74,49,39,31,1
1177,42.45506048202515,34,35,37,11,75,38,33,26,1
1178,42.47710108757019,31,34,38,11,92,40,35,27,1
1179,42.500041484832764,26,31,37,10,88,36,32,27,1
1180,42.515069246292114,33,31,37,10,100,46,38,30,1
1181,42.53740668296814,39,32,37,10,104,48,42,30,1
1182,42.56049609184265,44,35,36,10,101,53,43,30,1
1183,42.57524657249451,45,34,35,10,87,54,46,30,1
1184,42.59737038612366,51,48,46,9,101,72,64,35,1
1185,42.619853258132935,46,47,42,9,97,66,61,36,1
1186,42.63528347015381,42,46,40,9,92,64,61,34,1
1187,42.657235622406006,45,53,50,9,111,67,66,34,1
1188,42.68006420135498,44,55,51,10,117,65,64,35,1
1189,42.69856667518616,42,46,44,11,121,48,48,31,1
1190,42.71737837791443,45,47,46,12,120,51,48,31,1
1191,42.74844741821289,46,50,48,12,122,55,49,33,1
1192,42.75574851036072,41,42,46,12,107,49,43,35,1
1193,42.77732610702515,47,48,53,12,116,58,50,40,1
1194,42.80005621910095,47,50,53,11,106,63,58,41,1
1195,42.81663966178894,43,48,53,11,104,61,57,39,1
1196,42.83764982223511,43,46,52,10,107,61,59,40,1
1197,42.86000180244446,43,44,49,10,102,60,57,38,1
1198,42.87684893608093,40,40,42,10,94,57,55,35,1
1199,42.89744734764099,42,41,40,10,108,60,53,35,1
1200,42.91957235336304,44,44,37,10,116,66,57,35,1
1201,42.93701791763306,48,52,40,10,123,69,61,34,1
1202,42.95704460144043,48,53,38,11,125,69,61,35,1
1203,42.9803249835968,47,52,39,11,128,69,65,35,1
1204,42.99719476699829,44,54,41,11,113,62,62,33,1
1205,43.01699185371399,42,52,44,11,101,56,59,34,1
1206,43.039952516555786,42,49,54,11,102,56,56,35,1
1207,43.05653357505798,42,48,54,11,102,60,58,38,1
1208,43.07764792442322,42,47,53,11,99,56,51,35,1
1209,43.10061240196228,43,42,55,10,119,59,53,35,1
1210,43.122530937194824,44,42,53,10,120,58,52,35,1
1211,43.13855242729187,41,38,44,10,128,57,48,36,1
1212,43.16087055206299,41,39,43,10,135,59,51,35,1
1213,43.18254590034485,39,37,43,10,127,58,49,37,1
1214,43.1975531578064,39,37,40,10,110,56,48,39,1
1215,43.21997952461243,38,38,42,10,113,59,53,39,1
1216,43.2426655292511,36,35,39,10,96,52,52,34,1
1217,43.257309913635254,39,36,37,11,83,47,49,32,1
1218,43.27985596656799,37,40,36,11,83,48,50,30,1
1219,43.30186438560486,38,42,41,11,103,47,47,30,1
1220,43.317527770996094,41,42,43,11,116,48,46,30,1
1221,43.339948654174805,45,45,46,11,119,59,57,37,1
1222,43.36330699920654,45,50,57,10,132,68,66,44,1
1223,43.377426624298096,45,51,60,10,142,72,70,46,1
1224,43.400574684143066,41,47,55,10,123,69,68,43,1
1225,43.42238759994507,39,48,52,10,110,68,66,42,1
1226,43.43742561340332,43,49,54,10,108,64,60,37,1
1227,43.46734046936035,42,47,50,10,106,64,57,35,1
1228,43.48288917541504,43,43,47,10,94,60,51,33,1
1229,43.49729323387146,46,43,47,10,106,61,51,32,1
1230,43.51992607116699,45,40,50,10,105,57,51,38,1
1231,43.54230093955994,39,34,46,10,99,50,47,42,1
1232,43.55775809288025,44,34,43,9,83,52,48,37,1
1233,43.58258819580078,43,35,43,10,82,53,50,37,1
1234,43.60311722755432,42,40,46,10,79,56,56,41,1
1235,43.617467641830444,43,40,42,10,87,58,57,39,1
1236,43.6400682926178,42,40,41,10,83,58,56,36,1
1237,43.66246008872986,35,38,37,10,86,47,49,38,1
1238,43.67745780944824,37,39,47,10,125,53,53,43,1
1239,43.70010995864868,36,38,44,10,125,49,45,37,1
1240,43.72241234779358,39,40,46,10,129,50,46,38,1
1241,43.74528694152832,41,41,47,10,140,53,48,36,1
1242,43.76036214828491,49,44,45,11,142,57,51,38,1
1243,43.78268337249756,49,42,34,11,118,51,50,33,1
1244,43.79799270629883,48,40,36,11,112,50,53,33,1
1245,43.82026433944702,46,41,36,11,109,59,57,34,1
1246,43.84290099143982,48,45,39,10,101,62,62,38,1
1247,43.85941743850708,42,42,41,10,106,59,58,37,1
1248,43.880268573760986,41,42,41,10,92,60,56,38,1
1249,43.9023654460907,40,42,48,10,102,62,57,41,1
1250,43.91747236251831,39,40,46,11,98,55,53,38,1
1251,43.940003633499146,36,40,46,11,104,50,50,32,1
1252,43.963433504104614,35,43,48,11,98,56,57,29,1
1253,43.98519515991211,37,44,50,11,100,55,59,33,1
1254,44.000203371047974,42,48,45,11,94,58,63,37,1
1255,44.02459359169006,44,53,56,10,116,67,71,43,1
1256,44.04657554626465,46,52,57,10,112,68,71,46,1
1257,44.05962634086609,43,46,54,9,107,60,62,46,1
1258,44.082515001297,45,52,57,9,120,62,64,46,1
1259,44.10447025299072,43,48,55,10,127,58,58,43,1
1260,44.12025547027588,41,44,42,10,100,44,44,37,1
1261,44.14232158660889,38,43,39,10,97,46,43,36,1
1262,44.165064573287964,41,42,37,10,99,49,44,35,1
1263,44.18003010749817,41,40,38,10,103,59,51,33,1
1264,44.20195770263672,38,39,36,10,88,56,49,30,1
1265,44.2252631187439,39,36,37,11,90,55,49,29,1
1266,44.24022340774536,44,39,41,11,92,60,56,35,1
1267,44.26252031326294,44,45,50,11,107,71,70,44,1
1268,44.28508758544922,41,44,49,11,93,62,62,47,1
1269,44.29997134208679,43,48,51,11,102,69,67,49,1
1270,44.322476863861084,45,50,52,11,104,71,68,51,1
1271,44.344923973083496,39,47,48,10,99,65,61,48,1
1272,44.36181163787842,39,47,43,10,84,51,43,40,1
1273,44.38333821296692,43,46,42,10,95,54,46,35,1
1274,44.40556740760803,41,41,41,10,95,49,40,38,1
1275,44.41993856430054,42,36,40,10,93,47,40,35,1
1276,44.44344091415405,42,35,48,9,110,48,38,34,1
1277,44.46474075317383,40,31,46,9,112,47,40,34,1
1278,44.48169255256653,35,27,49,9,109,45,38,35,1
1279,44.50253629684448,48,45,61,9,122,55,49,38,1
1280,44.5253484249115,48,49,69,9,133,63,51,38,1
1281,44.5399169921875,49,55,68,10,130,67,53,38,1
1282,44.56421232223511,51,57,70,10,131,69,55,40,1
1283,44.58520531654358,51,58,66,11,135,69,56,39,1
1284,44.60053038597107,42,51,55,11,124,63,46,34,1
1285,44.62215566635132,41,49,45,10,114,59,46,35,1
1286,44.64511251449585,41,44,37,9,111,54,47,33,1
1287,44.660218954086304,41,43,38,10,112,54,49,34,1
1288,44.691169023513794,44,44,40,9,101,52,54,34,1
1289,44.70461821556091,42,38,40,10,102,50,59,33,1
1290,44.719661235809326,42,42,46,10,116,56,63,32,1
1291,44.74262070655823,47,47,50,10,118,60,67,33,1
1292,44.76526093482971,44,45,46,10,114,61,66,33,1
1293,44.780097007751465,42,43,46,10,115,60,64,33,1
1294,44.80291175842285,39,43,45,10,107,57,57,32,1
1295,44.8255832195282,48,45,37,10,108,58,57,32,1
1296,44.84041714668274,48,42,35,10,102,63,58,34,1
1297,44.862576484680176,50,41,40,10,109,66,58,34,1
1298,44.8851797580719,49,40,39,9,104,66,56,33,1
1299,44.90007209777832,51,46,45,10,116,74,63,38,1
1300,44.92258930206299,41,40,46,10,95,68,58,36,1
1301,44.94514775276184,38,43,45,10,103,65,53,36,1
1302,44.95998501777649,36,46,41,11,93,59,49,34,1
1303,44.98248052597046,40,51,42,11,103,61,53,36,1
1304,45.00510811805725,42,50,37,11,104,66,56,37,1
1305,45.02711486816406,45,54,41,10,117,73,64,42,1
1306,45.04261040687561,43,48,38,10,104,68,60,39,1
1307,45.06516218185425,49,51,42,10,109,75,68,41,1
1308,45.0876350402832,46,47,43,9,106,71,64,41,1
1309,45.103161096572876,41,46,43,9,107,60,58,39,1
1310,45.12528705596924,40,42,41,9,98,53,51,36,1
1311,45.14770770072937,39,41,43,9,101,53,53,41,1
1312,45.16227436065674,30,38,38,10,100,43,43,37,1
1313,45.18519139289856,30,37,41,10,106,44,43,37,1
1314,45.208049058914185,34,34,44,10,92,41,41,32,1
1315,45.22273588180542,31,43,50,10,105,49,46,35,1
1316,45.24466109275818,39,57,58,11,111,72,62,35,1
1317,45.26904797554016,43,55,59,10,107,74,63,36,1
1318,45.28268623352051,51,62,59,10,99,77,64,38,1
1319,45.304651737213135,52,64,59,10,113,81,70,43,1
1320,45.328245878219604,53,59,53,11,96,74,65,40,1
1321,45.342466831207275,46,45,43,10,92,56,48,37,1
1322,45.36555314064026,45,46,44,10,91,55,49,38,1
1323,45.38799738883972,38,38,41,10,87,50,48,35,1
1324,45.40263557434082,32,32,39,10,68,46,42,30,1
1325,45.425243616104126,41,38,48,10,103,50,46,34,1
1326,45.44802284240723,40,37,48,9,106,47,46,32,1
1327,45.462756633758545,41,36,48,10,113,45,44,31,1
1328,45.48538064956665,39,36,51,11,125,48,50,35,1
1329,45.50780129432678,39,36,51,11,127,48,48,35,1
1330,45.52489376068115,29,28,43,11,111,44,46,32,1
1331,45.54568147659302,35,34,46,11,116,45,49,36,1
1332,45.56771421432495,35,34,44,11,116,47,49,37,1
1333,45.583916664123535,40,35,41,10,108,49,45,33,1
1334,45.60521745681763,41,37,39,10,104,47,43,32,1
1335,45.62762498855591,41,37,39,10,96,46,43,35,1
1336,45.64270806312561,36,34,37,10,100,45,41,32,1
1337,45.6647047996521,37,37,37,10,94,44,41,30,1
1338,45.688071727752686,33,37,42,10,99,53,50,34,1
1339,45.70254969596863,32,35,38,10,98,50,49,35,1
1340,45.725433349609375,37,34,35,10,98,50,50,35,1
1341,45.824228286743164,32,37,34,11,76,50,49,36,1
1342,45.845189809799194,31,37,35,10,82,53,51,36,1
1343,45.86822056770325,34,38,35,10,92,54,53,39,1
1344,45.882837533950806,36,36,33,11,87,51,49,35,1
1345,45.90661382675171,34,35,35,11,90,51,48,34,1
1346,45.92761707305908,38,38,42,10,99,62,56,36,1
1347,45.95096707344055,41,34,42,10,92,59,52,35,1
1348,45.96524429321289,37,32,40,10,84,57,50,32,1
1349,45.987748861312866,48,43,48,9,98,63,58,35,1
1350,46.010775089263916,49,43,46,10,92,60,56,36,1
1351,46.02519488334656,47,40,38,10,83,50,48,34,1
1352,46.047706604003906,47,44,40,10,95,59,58,39,1
1353,46.07088279724121,47,45,42,11,102,61,57,41,1
1354,46.08524513244629,35,33,35,11,92,55,48,39,1
1355,46.107820987701416,35,32,36,10,96,53,47,37,1
1356,46.130980491638184,34,34,44,10,97,56,53,37,1
1357,46.14528965950012,33,34,40,10,89,51,47,35,1
1358,46.16822528839111,35,36,43,10,103,52,49,36,1
1359,46.19088697433472,36,39,45,10,98,51,51,36,1
1360,46.20526075363159,36,39,43,10,98,56,53,37,1
1361,46.22807264328003,37,39,39,10,97,52,49,39,1
1362,46.2511990070343,34,36,36,10,93,51,47,36,1
1363,46.265509843826294,32,33,33,10,77,46,45,33,1
1364,46.28758668899536,31,35,33,10,81,48,44,34,1
1365,46.31085920333862,31,36,33,10,73,43,40,34,1
1366,46.32540154457092,28,34,30,10,74,40,36,32,1
1367,46.34791874885559,34,39,37,10,79,43,42,35,1
1368,46.37104344367981,33,38,37,10,68,41,42,34,1
1369,46.385260820388794,33,34,33,10,63,39,38,33,1
1370,46.40773558616638,35,35,35,9,75,42,42,32,1
1371,46.43121814727783,36,35,38,10,74,43,47,31,1
1372,46.44528412818909,33,29,39,10,66,38,40,27,1
1373,46.467583656311035,43,43,54,10,110,71,67,41,1
1374,46.490474224090576,42,43,56,10,117,71,70,42,1
1375,46.50516366958618,43,46,58,11,120,74,70,42,1
1376,46.527825117111206,42,45,58,11,119,75,67,43,1
1377,46.550249338150024,44,46,55,11,128,81,68,42,1
1378,46.56477737426758,37,34,38,10,92,54,41,29,1
1379,46.58723974227905,40,39,41,10,88,57,42,28,1
1380,46.610310316085815,39,38,36,9,80,53,41,31,1
1381,46.62615704536438,38,38,33,9,84,51,41,31,1
1382,46.64810013771057,36,39,37,10,80,43,40,35,1
1383,46.670257329940796,32,39,39,9,90,45,43,36,1
1384,46.68521213531494,30,36,38,10,92,51,48,37,1
1385,46.70720171928406,29,33,42,10,102,49,46,35,1
1386,46.73055577278137,31,33,42,10,100,49,47,35,1
1387,46.744709730148315,34,32,38,10,94,48,47,33,1
1388,46.76723265647888,34,33,39,10,98,50,48,35,1
1389,46.7910430431366,31,29,37,10,94,40,39,33,1
1390,46.80470943450928,31,28,33,10,82,42,41,32,1
1391,46.82773303985596,32,28,33,10,80,44,41,31,1
1392,46.85021948814392,30,24,33,10,77,43,38,32,1
1393,46.87293887138367,32,28,36,10,89,41,36,29,1
1394,46.88796043395996,35,34,35,10,91,42,36,33,1
1395,46.91033959388733,37,36,36,10,92,42,36,32,1
1396,46.933385372161865,35,37,36,10,92,40,36,32,1
1397,46.94774389266968,35,42,38,10,95,44,40,35,1
1398,46.97017002105713,40,47,35,10,83,52,45,34,1
1399,46.993757247924805,37,43,34,10,75,52,45,30,1
1400,47.007943868637085,43,50,39,11,77,55,49,36,1
1401,47.03023052215576,46,51,51,11,98,58,52,38,1
1402,47.053544998168945,46,46,48,10,100,55,51,37,1
1403,47.06796908378601,43,42,51,10,104,50,46,40,1
1404,47.09037232398987,52,53,61,11,132,74,69,45,1
1405,47.113216161727905,49,50,60,10,137,80,71,42,1
1406,47.12785720825195,46,48,50,9,123,78,68,39,1
1407,47.150445222854614,46,52,52,9,129,81,70,40,1
1408,47.17342925071716,45,52,51,9,135,81,73,41,1
1409,47.18726563453674,36,42,41,9,113,62,53,34,1
1410,47.21091270446777,33,40,39,10,108,50,46,36,1
1411,47.23358511924744,34,40,41,10,113,50,47,39,1
1412,47.24813961982727,33,36,38,10,101,43,42,37,1
1413,47.27037501335144,34,31,34,11,79,40,39,33,1
1414,47.29323124885559,37,35,38,11,78,39,37,37,1
1415,47.30772614479065,40,34,37,11,74,37,37,35,1
1416,47.33218741416931,40,36,38,11,65,41,41,32,1
1417,47.35371994972229,37,35,38,11,68,45,43,30,1
1418,47.36785054206848,35,35,37,10,63,41,37,29,1
1419,47.38998103141785,33,33,32,10,56,42,42,29,1
1420,47.413007497787476,28,34,32,10,67,47,41,32,1
1421,47.42789888381958,26,31,30,10,70,44,37,33,1
1422,47.45040202140808,28,32,29,10,69,43,37,34,1
1423,47.47337245941162,27,31,32,10,73,43,38,35,1
1424,47.48779320716858,28,29,30,11,73,43,39,34,1
1425,47.51076292991638,34,34,33,10,75,47,46,39,1
1426,47.53411555290222,36,36,31,10,86,45,45,38,1
1427,47.54792666435242,36,37,33,10,90,43,44,37,1
1428,47.571444272994995,37,41,36,10,100,49,47,39,1
1429,47.59356641769409,36,41,39,10,106,46,45,37,1
1430,47.60830092430115,30,36,36,10,96,38,38,30,1
1431,47.63045835494995,29,38,38,10,87,41,41,31,1
1432,47.65363693237305,28,39,36,10,88,44,45,32,1
1433,47.66786575317383,36,47,36,10,93,47,52,33,1
1434,47.69102764129639,35,46,36,9,86,49,52,34,1
1435,47.71344876289368,36,45,35,10,87,49,51,34,1
1436,47.727765798568726,37,41,36,10,89,48,51,35,1
1437,47.75038480758667,38,42,40,10,89,49,50,37,1
1438,47.77341961860657,36,34,40,11,82,44,43,35,1
1439,47.787967920303345,37,36,41,11,85,43,42,36,1
1440,47.81160831451416,37,35,41,11,87,45,44,37,1
1441,47.84147810935974,35,37,42,11,90,44,43,35,1
1442,47.8561372756958,35,35,43,11,92,50,46,34,1
1443,47.87049150466919,34,36,44,10,93,55,49,33,1
1444,47.89367341995239,32,36,42,10,91,56,51,31,1
1445,47.91649127006531,32,37,43,10,91,57,50,34,1
1446,47.93164682388306,33,35,45,9,91,60,52,35,1
1447,47.953608989715576,31,33,43,9,88,53,46,34,1
1448,47.976160764694214,25,26,37,9,76,46,44,36,1
1449,47.990432024002075,28,28,40,10,90,58,49,37,1
1450,48.02120065689087,26,28,44,10,92,57,50,34,1
1451,48.036680459976196,30,31,41,11,83,60,53,35,1
1452,48.05050468444824,33,32,40,11,78,60,55,36,1
1453,48.07361149787903,38,35,44,11,82,61,57,35,1
1454,48.09612154960632,38,32,40,11,66,47,49,33,1
1455,48.11047339439392,42,33,39,11,76,51,53,34,1
1456,48.13396716117859,40,34,43,10,82,48,51,32,1
1457,48.15624237060547,38,32,43,11,80,46,49,30,1
1458,48.17037391662598,37,31,39,10,78,44,43,31,1
1459,48.193418741226196,38,35,44,10,89,56,51,32,1
1460,48.29910349845886,41,51,43,11,76,54,53,31,1
1461,48.313448667526245,42,55,48,11,107,63,62,34,1
1462,48.3362250328064,46,56,52,11,119,66,67,36,1
1463,48.35081624984741,43,52,50,11,120,60,63,39,1
1464,48.37293553352356,45,55,59,11,136,74,75,44,1
1465,48.39624238014221,45,53,61,10,141,76,75,48,1
1466,48.410325050354004,45,49,56,10,118,66,68,47,1
1467,48.43340349197388,40,44,51,10,103,61,60,46,1
1468,48.45631146430969,40,44,55,10,107,62,61,43,1
1469,48.470362186431885,31,28,45,10,88,41,39,36,1
1470,48.49350666999817,37,32,43,10,90,49,47,32,1
1471,48.516067028045654,35,38,46,9,95,54,50,33,1
1472,48.53042793273926,37,41,46,10,91,57,53,31,1
1473,48.553699016571045,41,45,39,10,79,54,49,28,1
1474,48.576138734817505,43,50,35,9,74,54,49,28,1
1475,48.59058713912964,43,51,35,9,68,53,52,31,1
1476,48.61356043815613,44,47,30,10,67,51,49,30,1
1477,48.63607382774353,42,45,29,10,70,47,46,29,1
1478,48.6507453918457,41,46,38,10,102,57,52,33,1
1479,48.67352843284607,44,45,53,10,119,65,65,35,1
1480,48.696083307266235,40,39,53,10,116,58,57,32,1
1481,48.7098433971405,38,40,52,9,112,56,58,32,1
1482,48.733646392822266,41,42,55,9,121,63,62,35,1
1483,48.756155252456665,46,38,51,9,106,56,61,32,1
1484,48.778669118881226,41,35,39,9,92,51,49,31,1
1485,48.79456949234009,40,38,42,10,98,57,51,33,1
1486,48.81661415100098,40,38,44,10,101,58,52,34,1
1487,48.83858847618103,38,39,46,10,109,55,47,33,1
1488,48.85355091094971,34,42,45,10,105,54,49,36,1
1489,48.87600636482239,35,44,43,10,108,58,52,37,1
1490,48.899240255355835,35,43,40,11,103,50,48,36,1
1491,48.913474798202515,38,44,42,11,103,50,52,35,1
1492,48.93598699569702,38,42,38,11,83,48,53,36,1
1493,49.033830404281616,40,42,45,10,96,52,53,37,1
1494,49.05624580383301,43,43,42,10,103,49,51,37,1
1495,49.078593015670776,43,45,45,10,106,53,56,40,1
1496,49.093732595443726,44,48,54,10,125,65,65,45,1
1497,49.175472259521484,52,56,61,10,150,79,76,43,1
1498,49.198988914489746,47,49,51,10,132,70,65,39,1
1499,49.21315312385559,40,37,46,10,98,56,52,35,1
1500,49.236223220825195,36,37,48,10,95,57,54,38,1
1501,49.258533000946045,31,29,35,10,82,48,45,34,1
1502,49.272836446762085,32,29,35,11,80,44,42,33,1
1503,49.29701495170593,36,33,37,10,93,46,44,33,1
1504,49.31864142417908,35,34,34,11,94,46,48,34,1
1505,49.333091020584106,36,34,35,11,96,49,49,31,1
1506,49.35549783706665,37,39,41,10,94,49,48,28,1
1507,49.37891864776611,42,47,42,10,95,57,55,31,1
1508,49.39286661148071,43,46,47,10,91,59,57,35,1
1509,49.41621708869934,43,47,47,10,88,56,54,32,1
1510,49.438554763793945,41,45,47,9,83,51,49,31,1
1511,49.45337533950806,40,41,45,10,87,52,50,32,1
1512,49.47580051422119,39,35,49,10,90,48,43,31,1
1513,49.49879837036133,38,37,55,10,101,49,40,30,1
1514,49.51245450973511,37,37,55,10,100,51,44,32,1
1515,49.536402463912964,41,39,56,10,105,61,52,33,1
1516,49.5586199760437,38,38,54,10,108,61,52,32,1
1517,49.572993755340576,33,36,51,10,103,59,52,33,1
1518,49.59615349769592,31,33,40,10,81,55,55,30,1
1519,49.61907935142517,31,30,40,11,83,53,50,32,1
1520,49.63296127319336,25,27,38,11,81,43,45,31,1
1521,49.656259298324585,31,30,38,11,79,41,43,32,1
1522,49.678364992141724,33,31,35,11,88,45,48,33,1
1523,49.69393968582153,32,27,31,11,87,42,41,35,1
1524,49.716294288635254,36,29,32,10,92,43,47,36,1
1525,49.73889636993408,39,32,34,10,96,52,50,36,1
1526,49.76148819923401,35,29,33,10,90,50,48,36,1
1527,49.77601432800293,37,30,34,10,83,45,45,34,1
1528,49.798543214797974,41,35,35,10,99,59,53,33,1
1529,49.89615321159363,37,46,46,10,80,57,53,40,1
1530,49.91907858848572,38,45,43,10,79,56,49,40,1
1531,49.941346406936646,45,48,49,10,85,55,50,39,1
1532,49.956180810928345,42,45,44,10,81,49,47,37,1
1533,50.06171727180481,35,47,47,10,96,54,53,37,1
1534,50.07608437538147,34,47,47,10,102,56,57,34,1
1535,50.09856963157654,34,49,54,10,109,61,60,35,1
1536,50.12204360961914,31,41,55,10,114,56,50,36,1
1537,50.13575863838196,34,42,57,10,116,55,52,36,1
1538,50.15860366821289,28,35,47,10,107,52,49,32,1
1539,50.18092107772827,29,36,46,10,97,50,45,37,1
1540,50.19615983963013,34,34,41,10,95,42,41,37,1
1541,50.21877598762512,37,38,39,10,91,43,47,37,1
1542,50.241204500198364,35,37,37,11,88,40,43,37,1
1543,50.255502223968506,36,42,41,11,93,43,47,39,1
1544,50.27887535095215,42,45,49,11,117,60,61,39,1
1545,50.30128479003906,42,49,52,11,111,64,68,39,1
1546,50.31550979614258,41,50,50,11,103,61,63,39,1
1547,50.33887314796448,46,55,53,10,110,65,70,40,1
1548,50.36142659187317,47,54,52,10,110,64,68,43,1
1549,50.37565541267395,47,55,45,10,99,58,65,46,1
1550,50.39935374259949,46,52,45,11,117,62,64,48,1
1551,50.42125082015991,50,58,48,11,127,69,68,47,1
1552,50.438358783721924,49,52,46,10,119,65,61,50,1
1553,50.45864510536194,49,50,48,11,118,67,60,50,1
1554,50.48220109939575,49,48,48,11,106,63,50,45,1
1555,50.50382685661316,52,53,49,10,89,62,53,44,1
1556,50.51866126060486,49,47,47,10,70,56,50,45,1
1557,50.54228639602661,46,48,46,11,69,54,49,40,1
1558,50.55500292778015,47,54,49,11,73,58,52,39,1
1559,50.57848262786865,43,52,47,11,77,57,52,37,1
1560,50.601449728012085,40,50,44,11,71,49,44,38,1
1561,50.61509370803833,41,47,44,11,72,48,47,39,1
1562,50.639296531677246,43,53,46,10,84,54,54,41,1
1563,50.661213636398315,48,50,47,10,95,61,59,40,1
1564,50.68366074562073,47,49,43,10,84,55,56,39,1
1565,50.69912266731262,44,43,39,10,84,54,54,35,1
1566,50.7214891910553,41,50,39,10,87,55,53,43,1
1567,50.743812084198,42,45,37,10,83,50,48,44,1
1568,50.758888721466064,32,41,34,10,69,37,37,43,1
1569,50.78069519996643,34,43,35,10,71,38,39,46,1
1570,50.80344605445862,36,45,37,10,73,42,41,49,1
1571,50.819597482681274,36,37,34,10,71,40,36,41,1
1572,50.99895763397217,53,54,52,10,92,67,69,49,1
1573,51.02162313461304,43,39,38,10,67,43,42,46,1
1574,51.04370641708374,39,35,33,10,63,38,37,44,1
1575,51.05891561508179,40,37,36,10,62,41,41,45,1
1576,51.22249984741211,55,60,51,9,112,67,66,48,1
1577,51.24543261528015,46,46,40,10,96,55,52,46,1
1578,51.264177560806274,43,37,40,10,87,48,49,46,1
1579,51.28301954269409,38,40,38,10,85,44,45,43,1
1580,51.3060245513916,37,43,38,11,85,47,46,44,1
1581,51.323113203048706,45,47,38,11,95,48,50,42,1
1582,51.34327292442322,47,46,32,11,89,42,45,38,1
1583,51.36577033996582,49,48,29,10,80,44,47,42,1
1584,51.38259315490723,55,46,31,11,81,44,49,47,1
1585,51.40310978889465,57,51,36,11,82,40,49,41,1
1586,51.42637085914612,52,47,39,11,65,38,45,38,1
1587,51.44143795967102,60,58,43,10,56,38,44,44,1
1588,51.46326684951782,56,59,45,11,54,33,37,39,1
1589,51.48578691482544,54,60,49,11,56,36,40,37,1
1590,51.50274038314819,50,56,53,12,71,40,41,38,1
1591,51.52302837371826,47,55,50,11,70,39,41,41,1
1592,51.54553508758545,35,45,49,12,72,42,45,37,1
1593,51.56348156929016,39,48,54,11,87,49,54,39,1
1594,51.58391070365906,39,46,50,11,86,53,58,37,1
1595,51.605839014053345,38,43,41,10,74,49,55,41,1
1596,51.628130197525024,44,52,50,10,94,54,60,43,1
1597,51.88311505317688,51,63,51,12,112,74,72,57,1
1598,51.905539751052856,49,62,51,12,109,75,72,58,1
1599,51.92236638069153,48,60,51,11,109,75,73,52,1
1600,51.943039417266846,45,58,51,11,101,67,68,52,1
1601,52.185264587402344,46,50,42,10,102,59,64,59,1
1602,52.20593333244324,47,52,41,10,99,61,67,60,1
1603,52.22216439247131,50,58,47,10,99,62,67,53,1
1604,52.24288535118103,50,54,46,10,89,60,66,52,1
1605,52.26563811302185,49,57,47,10,90,60,67,46,1
1606,52.283886194229126,46,55,44,11,91,54,56,40,1
1607,52.30317139625549,50,54,46,11,92,54,55,42,1
1608,52.32563304901123,48,44,42,11,86,53,54,44,1
1609,52.34286022186279,50,49,47,11,94,63,61,46,1
1610,52.36307692527771,55,52,45,11,93,64,56,48,1
1611,52.38569903373718,54,50,42,10,81,60,53,44,1
1612,52.4033739566803,51,55,51,11,121,80,67,47,1
1613,52.42317867279053,50,59,50,11,123,79,66,46,1
1614,52.445186376571655,46,56,46,10,120,72,57,42,1
1615,52.461570024490356,41,54,52,10,125,77,62,41,1
1616,52.48266077041626,44,54,52,10,132,80,68,44,1
1617,52.50559401512146,53,59,48,10,112,71,66,42,1
1618,52.52414059638977,55,56,54,10,123,75,70,41,1
1619,52.54311180114746,55,55,53,10,126,74,70,40,1
1620,52.5665922164917,55,54,54,10,125,77,76,48,1
1621,52.588443756103516,58,54,54,11,128,84,76,49,1
1622,52.60414123535156,50,44,48,11,110,78,68,46,1
1623,52.62577247619629,55,47,44,10,114,81,69,49,1
1624,52.64812970161438,55,48,44,10,108,81,67,50,1
1625,52.66314458847046,54,46,38,10,108,77,59,42,1
1626,52.688318729400635,50,47,41,10,105,73,58,46,1
1627,52.708197593688965,48,48,40,10,105,68,55,46,1
1628,52.72330570220947,38,42,37,10,84,58,47,40,1
1629,52.74553847312927,37,41,38,10,83,58,48,41,1
1630,52.76871395111084,37,39,43,10,82,51,45,41,1
1631,52.78322148323059,38,38,42,10,70,38,36,34,1
1632,52.805670499801636,44,43,51,10,84,52,55,47,1
1633,52.82840967178345,52,53,58,10,117,73,70,56,1
1634,52.84315800666809,55,54,56,11,123,76,74,59,1
1635,52.8659131526947,53,53,51,11,116,76,74,58,1
1636,52.88836717605591,60,57,60,11,143,96,99,69,1
1637,52.90518856048584,56,55,53,11,135,89,90,62,1
1638,52.92587900161743,50,50,47,11,112,74,81,59,1
1639,52.948150634765625,55,61,57,11,140,90,97,56,1
1640,52.96322989463806,56,61,60,10,143,91,99,56,1
1641,52.98640513420105,51,56,50,10,118,71,75,45,1
1642,53.00807499885559,50,51,50,10,120,71,73,44,1
1643,53.02313590049744,54,49,49,10,116,72,75,41,1
1644,53.045892000198364,50,40,40,10,75,46,49,41,1
1645,53.068238258361816,48,44,39,10,85,50,47,42,1
1646,53.08325552940369,51,62,56,11,118,76,70,44,1
1647,53.10626697540283,53,64,55,10,126,76,69,44,1
1648,53.1283278465271,49,63,54,11,128,75,66,42,1
1649,53.143251180648804,50,62,56,10,128,83,71,42,1
1650,53.16794753074646,56,64,61,10,127,89,83,53,1
1651,53.188071966171265,49,48,47,10,91,68,63,50,1
1652,53.20317268371582,49,48,49,10,79,68,64,50,1
1653,53.22566771507263,53,66,51,10,77,72,67,51,1
1654,53.248884201049805,51,63,47,10,71,60,60,50,1
1655,53.263872146606445,46,60,38,10,56,41,42,38,1
1656,53.28520846366882,46,60,38,10,65,39,46,35,1
1657,53.30830454826355,45,61,39,10,69,47,52,40,1
1658,53.32373046875,41,45,36,10,70,47,51,40,1
1659,53.345330476760864,39,44,36,10,70,50,51,42,1
1660,53.368321657180786,41,45,37,10,72,52,53,43,1
1661,53.38432574272156,41,46,38,10,73,55,53,46,1
1662,53.405709743499756,41,42,32,10,69,47,47,41,1
1663,53.42803168296814,40,40,32,10,74,44,44,38,1
1664,53.44281888008118,40,41,35,9,93,58,54,40,1
1665,53.46569752693176,35,46,36,9,95,63,53,37,1
1666,53.48890566825867,33,53,40,10,106,70,57,37,1
1667,53.5028555393219,33,54,43,10,106,71,58,37,1
1668,53.52518081665039,38,56,46,10,116,76,62,45,1
1669,53.54874873161316,38,56,44,10,108,69,59,42,1
1670,53.57075786590576,36,53,44,10,109,68,61,42,1
1671,53.58585786819458,43,48,45,10,118,76,70,49,1
1672,53.608338594436646,44,50,44,11,115,76,69,50,1
1673,53.63068652153015,44,49,45,10,101,70,65,44,1
1674,53.64577913284302,43,49,46,11,100,71,64,48,1
1675,53.668110609054565,45,47,44,10,107,67,61,51,1
1676,53.69072437286377,43,41,43,10,88,53,50,44,1
1677,53.705710887908936,40,37,41,10,89,53,51,45,1
1678,53.72892761230469,38,37,43,10,102,52,50,45,1
1679,53.75112247467041,39,37,45,10,104,47,48,43,1
1680,53.76639151573181,40,42,51,10,107,56,53,41,1
1681,53.788649797439575,39,46,52,11,104,50,46,45,1
1682,53.8107750415802,39,46,53,11,114,52,50,48,1
1683,53.82574129104614,38,45,46,11,107,50,49,47,1
1684,53.84808039665222,42,47,44,11,107,51,49,48,1
1685,53.87072014808655,40,41,38,11,95,41,41,47,1
1686,53.88604688644409,43,43,45,10,92,47,47,40,1
1687,53.90825080871582,50,52,50,10,91,58,49,34,1
1688,53.930853843688965,49,50,51,10,84,58,48,35,1
1689,53.945773124694824,48,52,56,10,81,60,50,33,1
1690,53.968645095825195,50,53,55,10,78,59,49,32,1
1691,53.99178647994995,44,51,46,10,87,57,45,32,1
1692,54.006120920181274,38,42,46,10,76,48,40,35,1
1693,54.02847242355347,42,43,46,10,81,48,44,34,1
1694,54.05084562301636,41,38,42,10,100,52,45,33,1
1695,54.06571698188782,40,38,41,11,99,52,46,39,1
1696,54.08819127082825,41,40,41,10,101,58,52,38,1
1697,54.11164164543152,40,38,35,10,102,56,52,38,1
1698,54.12808036804199,38,39,35,10,98,56,50,38,1
1699,54.14891314506531,35,38,30,10,72,47,45,36,1
1700,54.170830488204956,37,43,32,10,75,50,47,36,1
1701,54.18606400489807,37,41,33,10,71,47,47,37,1
1702,54.208301305770874,39,42,32,9,67,45,49,35,1
1703,54.230915546417236,38,45,36,9,67,48,51,39,1
1704,54.24594593048096,48,55,46,10,73,53,61,44,1
1705,54.26854372024536,44,50,46,10,74,51,58,39,1
1706,54.29923391342163,50,56,56,9,88,60,64,49,1
1707,54.305782318115234,55,60,61,10,103,72,73,52,1
1708,54.328635931015015,54,57,60,10,104,70,71,53,1
1709,54.3534836769104,47,47,53,10,105,68,66,49,1
1710,54.366230964660645,48,47,52,10,103,68,66,51,1
1711,54.38847589492798,42,37,41,11,86,58,58,40,1
1712,54.4109570980072,41,37,38,11,81,58,55,41,1
1713,54.426007986068726,44,43,40,11,85,64,60,37,1
1714,54.44854283332825,45,43,42,11,87,66,61,38,1
1715,54.47138214111328,48,43,46,10,89,69,65,36,1
1716,54.49350571632385,46,42,46,10,91,68,62,35,1
1717,54.50821876525879,42,44,51,10,89,60,54,33,1
1718,54.53185534477234,43,41,50,10,92,55,50,36,1
1719,54.55335807800293,42,41,47,10,88,50,45,34,1
1720,54.56854772567749,37,39,44,10,82,44,40,35,1
1721,54.59026575088501,36,41,44,10,76,43,40,35,1
1722,54.613434076309204,35,33,33,10,70,41,41,31,1
1723,54.62913632392883,32,30,30,10,60,42,41,31,1
1724,54.651007652282715,33,29,30,10,62,44,42,32,1
1725,54.673654556274414,36,31,32,10,73,50,47,34,1
1726,54.68884086608887,37,33,38,10,77,56,54,35,1
1727,54.710774421691895,35,33,40,10,79,55,51,36,1
1728,54.734586238861084,36,36,43,9,83,54,50,34,1
1729,54.74850058555603,38,45,49,9,91,57,57,38,1
1730,54.77088165283203,39,47,48,10,87,55,54,35,1
1731,54.793299436569214,39,45,45,10,84,48,46,33,1
1732,54.808449029922485,41,45,45,10,90,51,50,35,1
1733,54.83094239234924,43,45,43,10,90,51,53,36,1
1734,54.853678703308105,45,37,34,11,79,47,44,32,1
1735,54.867947816848755,44,43,37,10,79,48,45,40,1
1736,54.891173124313354,45,46,44,10,78,48,48,43,1
1737,54.91339039802551,44,46,42,10,65,47,47,45,1
1738,54.92861223220825,41,45,42,10,62,45,43,43,1
1739,54.951499938964844,39,48,44,10,69,55,52,45,1
1740,54.973575830459595,51,51,48,10,97,65,63,44,1
1741,54.98848628997803,51,50,43,10,103,68,65,41,1
1742,55.011292457580566,54,53,43,11,106,67,65,38,1
1743,55.03353953361511,54,55,42,11,111,70,66,38,1
1744,55.0488555431366,54,57,49,11,112,64,64,41,1
1745,55.0709171295166,42,49,48,11,97,59,55,36,1
1746,55.09340214729309,42,49,52,11,90,53,50,36,1
1747,55.108221769332886,39,49,53,11,86,54,49,35,1
1748,55.13091325759888,40,52,56,11,95,66,62,38,1
1749,55.153321743011475,40,49,50,10,97,68,63,37,1
1750,55.16881465911865,41,48,46,10,85,62,60,35,1
1751,55.191129207611084,39,48,41,10,93,69,64,36,1
1752,55.21424984931946,46,52,50,10,114,80,72,42,1
1753,55.228537797927856,44,48,46,10,102,69,61,41,1
1754,55.251198053359985,41,46,47,9,95,66,55,37,1
1755,55.27336287498474,40,43,46,9,95,67,56,42,1
1756,55.28851342201233,41,46,45,9,92,63,56,41,1
1757,55.310378313064575,32,38,32,10,68,45,43,35,1
1758,55.33377742767334,35,42,43,10,92,60,50,37,1
1759,55.34840154647827,43,44,43,10,96,66,63,40,1
1760,55.37333607673645,43,44,44,11,104,68,63,39,1
1761,55.39435029029846,45,44,46,11,104,66,62,41,1
1762,55.41621422767639,48,43,47,11,101,66,62,41,1
1763,55.43062424659729,47,42,38,11,82,56,58,37,1
1764,55.45509195327759,39,39,37,11,83,46,46,37,1
1765,55.47593069076538,43,45,37,11,77,49,49,35,1
1766,55.491612672805786,40,42,39,10,76,49,48,33,1
1767,55.522136211395264,36,41,38,10,78,48,50,34,1
1768,55.53706431388855,36,38,38,10,85,45,48,36,1
1769,55.55189633369446,44,42,38,10,93,54,52,36,1
1770,55.573395013809204,40,34,36,9,92,50,48,39,1
1771,55.59607124328613,37,33,31,9,86,49,46,40,1
1772,55.6130051612854,39,35,31,9,85,51,45,45,1
1773,55.633469104766846,38,39,30,9,86,54,49,44,1
1774,55.65606355667114,41,45,48,9,115,73,68,47,1
1775,55.6709520816803,44,50,54,9,120,81,77,49,1
1776,55.69357395172119,45,49,55,9,122,80,78,49,1
1777,55.7242386341095,48,53,59,10,123,82,79,50,1
1778,55.73075032234192,46,51,60,10,118,82,79,52,1
1779,55.753387689590454,37,43,49,10,75,58,59,47,1
1780,55.77711796760559,35,40,44,10,66,47,48,43,1
1781,55.793972969055176,35,42,49,10,76,52,51,46,1
1782,55.81285381317139,37,40,46,9,74,48,49,41,1
1783,55.83613896369934,37,39,46,10,75,47,46,40,1
1784,55.85119557380676,36,40,44,10,80,48,49,38,1
1785,55.873510122299194,36,41,45,10,86,49,50,40,1
1786,55.89742636680603,37,40,39,10,78,41,46,36,1
1787,55.91099715232849,31,34,35,10,79,45,46,37,1
1788,55.93414855003357,33,35,31,10,74,42,45,34,1
1789,55.95609092712402,36,37,35,10,72,43,44,36,1
1790,55.97246527671814,38,33,34,10,69,44,41,34,1
1791,55.99363565444946,36,30,36,10,66,44,39,32,1
1792,56.01571035385132,35,32,36,10,67,39,35,31,1
1793,56.03106904029846,34,31,41,9,72,42,35,30,1
1794,56.054558753967285,37,33,40,9,73,41,39,29,1
1795,56.07602834701538,37,34,37,9,67,37,38,29,1
1796,56.09115147590637,45,40,40,10,84,53,51,37,1
1797,56.11338686943054,47,39,40,10,95,57,52,36,1
1798,56.13622045516968,47,43,36,10,95,59,58,41,1
1799,56.15051460266113,46,41,34,10,94,58,56,41,1
1800,56.17278790473938,42,40,39,10,99,58,55,41,1
1801,56.19589877128601,35,33,34,11,84,47,43,34,1
1802,56.2117338180542,34,38,39,11,72,42,44,34,1
1803,56.234609842300415,34,36,38,11,70,38,37,29,1
1804,56.25610399246216,29,36,40,11,66,36,36,27,1
1805,56.27204942703247,30,36,34,11,63,35,35,29,1
1806,56.293915033340454,33,36,37,10,69,33,39,34,1
1807,56.315550088882446,30,33,35,10,69,36,40,37,1
1808,56.330952167510986,31,31,37,10,70,43,41,39,1
1809,56.3538613319397,31,28,32,10,74,46,40,38,1
1810,56.376020669937134,31,29,36,11,73,48,42,37,1
1811,56.399255990982056,28,30,32,11,66,46,37,31,1
1812,56.41316342353821,30,33,32,11,67,45,37,29,1
1813,56.43602228164673,28,32,29,10,64,37,36,26,1
1814,56.459596395492554,30,36,30,10,70,36,39,26,1
1815,56.47309970855713,30,35,27,10,65,36,37,26,1
1816,56.496700286865234,34,42,40,11,88,45,43,34,1
1817,56.51961398124695,33,39,40,11,87,44,43,33,1
1818,56.53380107879639,35,41,45,11,86,47,45,37,1
1819,56.55599236488342,38,46,61,11,110,64,59,42,1
1820,56.57907700538635,42,49,63,10,121,67,62,43,1
1821,56.593541383743286,44,49,62,10,113,67,64,38,1
1822,56.62372183799744,46,50,64,10,118,69,65,40,1
1823,56.6388418674469,46,50,65,10,117,69,64,40,1
1824,56.65398597717285,45,42,54,10,90,53,48,34,1
1825,56.67599105834961,43,39,52,10,79,50,46,33,1
1826,56.69892740249634,37,31,48,10,72,47,42,35,1
1827,56.71347236633301,34,29,46,9,66,45,43,35,1
1828,56.7360999584198,34,26,39,9,62,43,39,33,1
1829,56.75912666320801,30,25,37,9,58,40,38,33,1
1830,56.77341103553772,30,26,35,9,64,43,39,32,1
1831,56.79595351219177,30,26,31,10,63,41,36,27,1
1832,56.819742918014526,31,30,34,10,60,42,35,29,1
1833,56.83398389816284,30,31,34,10,59,41,38,29,1
1834,56.85606360435486,29,33,32,10,67,45,40,31,1
1835,56.87887263298035,26,35,37,10,62,41,43,31,1
1836,56.89358735084534,28,36,38,11,63,41,46,32,1
1837,56.916502237319946,28,38,36,11,67,42,44,32,1
1838,56.93923616409302,29,41,38,12,78,46,48,31,1
1839,56.95348858833313,30,43,39,12,76,46,47,31,1
1840,56.97601938247681,37,46,40,12,84,48,48,32,1
1841,56.99930191040039,37,45,39,11,87,52,46,32,1
1842,57.01376509666443,37,43,38,11,83,50,44,28,1
1843,57.035908222198486,36,40,41,11,78,49,39,29,1
1844,57.05905055999756,36,37,43,11,78,46,38,28,1
1845,57.07412672042847,34,32,40,11,79,44,38,28,1
1846,57.09636950492859,34,32,44,10,78,42,41,29,1
1847,57.11891174316406,33,33,44,10,80,45,43,27,1
1848,57.132988691329956,34,32,39,10,76,42,41,27,1
1849,57.15594673156738,39,40,40,10,85,55,51,33,1
1850,57.17925262451172,36,39,38,10,74,56,49,32,1
1851,57.19366908073425,33,37,32,10,68,54,45,31,1
1852,57.21601676940918,35,37,33,10,73,55,46,33,1
1853,57.23977446556091,38,41,42,10,77,54,50,33,1
1854,57.25367450714111,35,36,40,10,79,51,47,32,1
1855,57.276063442230225,34,35,39,10,80,50,47,35,1
1856,57.29936122894287,40,38,45,11,91,55,52,38,1
1857,57.321144580841064,41,37,44,11,90,53,52,39,1
1858,57.33621597290039,39,35,38,11,95,54,51,38,1
1859,57.35988783836365,38,32,38,11,87,48,44,34,1
1860,57.38178777694702,49,44,46,11,111,71,62,40,1
1861,57.39736247062683,48,44,43,11,105,72,59,37,1
1862,57.418835401535034,46,45,43,10,102,74,62,35,1
1863,57.44119715690613,46,45,42,10,100,79,64,35,1
1864,57.45676231384277,46,45,40,10,98,78,65,36,1
1865,57.47923970222473,35,34,33,10,70,58,48,26,1
1866,57.501917600631714,30,33,33,11,65,50,47,27,1
1867,57.51621627807617,32,33,39,11,65,46,44,28,1
1868,57.53945517539978,33,30,39,10,59,35,39,30,1
1869,57.56207227706909,33,29,38,10,63,39,41,30,1
1870,57.57609510421753,33,28,44,10,65,37,39,31,1
1871,57.59910297393799,35,27,44,10,69,41,44,31,1
1872,57.622071743011475,34,26,39,10,68,43,43,30,1
1873,57.63622975349426,35,33,40,10,72,49,48,26,1
1874,57.65932631492615,33,34,40,10,67,43,45,26,1
1875,57.68261456489563,36,38,39,11,64,49,51,26,1
1876,57.696064472198486,35,41,44,11,77,53,50,28,1
1877,57.719878911972046,33,40,44,11,77,50,46,30,1
1878,57.74175715446472,35,38,47,11,92,52,50,36,1
1879,57.75619578361511,36,37,48,10,92,51,49,36,1
1880,57.77851319313049,32,36,45,10,94,49,43,37,1
1881,57.802393198013306,35,34,40,10,86,48,44,36,1
1882,57.81620764732361,35,37,43,10,89,52,48,38,1
1883,57.838597774505615,34,38,45,10,73,46,42,35,1
1884,57.86177182197571,41,44,51,10,86,56,53,38,1
1885,57.87612795829773,40,42,51,10,87,55,55,37,1
1886,57.898619413375854,38,44,52,10,87,54,53,37,1
1887,57.92177891731262,39,43,50,10,89,54,52,35,1
1888,57.936681270599365,39,40,46,11,84,53,50,34,1
1889,57.95899224281311,33,36,43,10,72,47,44,34,1
1890,57.981908321380615,33,36,44,11,78,47,40,34,1
1891,57.99607515335083,33,32,41,11,80,45,38,34,1
1892,58.018691062927246,36,33,43,11,75,42,39,36,1
1893,58.041430711746216,36,36,42,10,77,41,43,38,1
1894,58.0560245513916,35,35,36,10,74,40,40,34,1
1895,58.07865524291992,43,46,44,10,98,50,50,36,1
1896,58.102237939834595,42,47,43,10,94,49,49,36,1
1897,58.116469860076904,40,47,48,10,105,58,59,39,1
1898,58.13884449005127,36,45,47,10,104,60,59,37,1
1899,58.16181516647339,38,45,49,10,106,57,58,40,1
1900,58.176079750061035,31,34,40,10,73,46,50,38,1
1901,58.19886136054993,31,33,44,10,77,48,51,39,1
1902,58.221797943115234,32,30,40,10,64,41,42,33,1
1903,58.23603296279907,33,31,41,10,67,41,36,32,1
1904,58.25952124595642,32,33,40,10,75,51,41,36,1
1905,58.28213024139404,36,36,42,9,82,52,45,38,1
1906,58.30391573905945,36,36,41,9,77,50,46,40,1
1907,58.319358348846436,36,37,38,9,77,48,42,40,1
1908,58.34155821800232,34,37,39,9,79,49,45,40,1
1909,58.3652069568634,33,35,37,9,68,39,39,35,1
1910,58.38629984855652,28,31,36,10,61,36,36,31,1
1911,58.40190935134888,26,29,34,10,59,46,38,27,1
1912,58.4248902797699,24,25,34,10,56,42,36,26,1
1913,58.438578605651855,29,28,30,11,53,38,34,25,1
1914,58.461830377578735,29,30,33,11,57,40,37,26,1
1915,58.48484921455383,33,32,35,11,56,43,39,27,1
1916,58.498178005218506,32,33,33,11,60,32,35,28,1
1917,58.52197861671448,35,35,35,11,65,38,40,29,1
1918,58.544286012649536,34,34,39,10,77,40,41,30,1
1919,58.56737399101257,34,34,40,10,75,40,40,28,1
1920,58.58120512962341,34,37,43,9,81,47,46,31,1
1921,58.6038773059845,37,38,46,9,90,50,49,33,1
1922,58.61890149116516,34,36,46,10,92,50,46,32,1
1923,58.64137816429138,39,43,49,10,93,54,48,33,1
1924,58.664761543273926,40,41,46,10,95,52,46,34,1
1925,58.678492069244385,37,39,45,10,95,47,42,34,1
1926,58.70179057121277,36,39,43,10,88,47,39,32,1
1927,58.7242374420166,37,41,46,10,98,47,42,34,1
1928,58.73936939239502,34,37,41,10,102,57,52,40,1
1929,58.76157879829407,33,41,43,10,107,64,58,41,1
1930,58.79187798500061,35,41,40,10,105,63,56,39,1
1931,58.798683404922485,36,43,44,10,108,61,56,42,1
1932,58.82128429412842,35,40,41,10,94,59,54,41,1
1933,58.84426236152649,31,40,42,10,84,47,43,35,1
1934,58.858760356903076,40,51,53,10,85,45,39,35,1
1935,58.881356716156006,40,50,53,10,84,44,39,34,1
1936,58.90390133857727,40,48,49,9,80,45,42,32,1
1937,58.91864824295044,44,50,48,10,85,46,43,30,1
1938,58.94267439842224,46,48,48,10,76,45,41,30,1
1939,58.96413230895996,41,35,37,10,66,40,41,31,1
1940,58.97876596450806,41,34,37,10,68,41,40,31,1
1941,59.002246141433716,43,38,37,10,66,42,41,33,1
1942,59.02400088310242,38,38,38,10,65,39,39,34,1
1943,59.03864908218384,38,37,39,11,75,45,44,35,1
1944,59.06211853027344,33,36,37,11,85,49,48,35,1
1945,59.084670305252075,32,35,37,11,83,49,50,35,1
1946,59.098541021347046,29,31,44,11,86,50,49,36,1
1947,59.122267961502075,33,29,42,10,81,51,52,35,1
1948,59.144615173339844,34,28,36,10,70,43,47,34,1
1949,59.15876913070679,39,31,39,10,62,40,43,33,1
1950,59.18221592903137,41,36,40,10,66,43,46,34,1
1951,59.204047203063965,40,34,32,10,62,39,44,31,1
1952,59.22696495056152,39,34,32,10,65,37,39,31,1
1953,59.241974115371704,38,36,34,10,67,41,41,31,1
1954,59.26438021659851,39,36,33,10,70,46,47,33,1
1955,59.28719091415405,37,35,34,10,65,43,44,32,1
1956,59.301772356033325,39,42,46,10,85,55,53,40,1
1957,59.32456111907959,41,45,47,10,87,56,53,39,1
1958,59.34728193283081,41,43,47,10,87,54,53,40,1
1959,59.36360239982605,33,40,44,10,80,46,44,37,1
1960,59.38453412055969,34,40,48,10,85,51,44,37,1
1961,59.40691328048706,31,36,46,11,83,42,39,32,1
1962,59.42151236534119,28,32,44,11,81,42,40,34,1
1963,59.4439377784729,27,34,44,11,83,45,42,33,1
1964,59.46694540977478,34,39,47,11,87,49,46,33,1
1965,59.481831073760986,35,37,42,11,82,45,46,36,1
1966,59.51182222366333,38,37,38,10,66,43,43,32,1
1967,59.52676510810852,45,43,50,10,86,56,53,34,1
1968,59.54183053970337,47,46,49,10,84,57,52,32,1
1969,59.5643093585968,42,42,47,10,80,54,47,30,1
1970,59.58757138252258,41,42,52,10,88,54,47,29,1
1971,59.60136580467224,37,39,47,10,84,53,46,30,1
1972,59.62460970878601,37,45,49,10,92,56,49,35,1
1973,59.6473650932312,37,46,51,10,97,56,48,38,1
1974,59.66213536262512,40,48,52,10,100,56,50,39,1
1975,59.684037923812866,46,49,51,10,99,56,51,43,1
1976,59.70636820793152,48,48,49,10,95,56,52,43,1
1977,59.72155046463013,40,37,37,10,67,39,38,38,1
1978,59.74444651603699,43,34,35,10,69,40,40,38,1
1979,59.766876459121704,45,40,39,10,84,46,45,43,1
1980,59.78118109703064,40,37,36,10,83,49,47,38,1
1981,59.803942918777466,41,42,41,10,90,53,52,41,1
1982,59.8271107673645,42,42,42,10,92,53,50,38,1
1983,59.8413782119751,40,43,46,10,89,52,52,40,1
1984,59.86395072937012,34,37,41,10,70,48,47,36,1
1985,59.88743805885315,37,39,41,10,66,43,46,38,1
1986,59.901211977005005,35,33,37,10,69,43,41,37,1
1987,59.92437124252319,36,34,34,10,70,44,43,37,1
1988,59.946877241134644,32,32,31,10,67,39,38,35,1
1989,59.961266040802,36,35,33,10,71,42,42,33,1
1990,59.98485326766968,33,34,32,10,70,45,43,32,1
1991,60.00699186325073,36,39,39,10,68,47,45,32,1
1992,60.02138543128967,38,41,43,10,69,49,46,32,1
1993,60.04452562332153,43,47,46,10,76,53,48,33,1
1994,60.06709957122803,39,44,46,10,76,50,45,34,1
1995,60.08133339881897,41,42,45,10,79,47,43,34,1
1996,60.10488152503967,40,41,41,11,72,43,40,31,1
1997,60.126821994781494,36,37,36,11,70,44,38,33,1
1998,60.1417293548584,32,29,33,10,74,41,39,33,1
1999,60.16445350646973,34,32,33,10,79,41,36,29,1
2000,60.187713384628296,37,35,38,10,77,47,38,30,1
2001,60.20974016189575,37,33,36,10,77,45,37,30,1
2002,60.22446846961975,37,34,47,10,91,47,40,29,1
2003,60.24638557434082,41,38,48,10,83,49,40,29,1
2004,60.27120780944824,39,35,47,10,78,48,40,32,1
2005,60.285083532333374,36,31,46,10,82,44,39,30,1
2006,60.30773615837097,32,32,48,10,84,47,41,31,1
2007,60.329699993133545,33,33,40,10,75,44,37,32,1
2008,60.344391107559204,30,26,33,10,67,40,34,30,1
2009,60.3671715259552,33,31,42,10,71,46,43,28,1
2010,60.38974690437317,33,33,44,11,66,46,43,29,1
