time,chanel1,chanel2,chanel3,chanel4,chanel5,chanel6,chanel7,chanel8,position
16.008102416992188,28,30,45,143,40,30,34,31,1
16.02871012687683,30,31,47,138,39,31,37,32,1
16.051260471343994,34,35,48,143,39,35,40,32,1
16.068387031555176,34,32,43,130,38,32,36,30,1
16.08885407447815,36,33,46,115,42,35,39,31,1
16.111746311187744,34,33,43,117,45,37,40,31,1
16.127996921539307,34,33,40,112,45,37,39,33,1
16.150516986846924,31,30,36,100,46,33,35,33,1
16.171366453170776,34,33,39,100,47,34,38,33,1
16.187453031539917,32,32,36,115,48,31,37,35,1
16.208746671676636,33,27,40,119,45,26,33,34,1
16.23162341117859,33,28,42,138,45,28,30,34,1
16.2536199092865,33,26,41,136,43,28,31,33,1
16.26866841316223,34,27,41,211,48,33,33,35,1
16.29154658317566,34,36,42,209,48,39,36,31,1
16.31416940689087,33,43,41,201,50,46,42,31,1
16.328872680664062,34,44,39,193,48,44,43,32,1
16.35883116722107,35,45,39,209,57,45,45,33,1
16.3738534450531,31,44,39,138,52,43,45,31,1
16.38869023323059,35,43,39,132,54,43,50,34,1
16.411211013793945,38,37,42,158,52,36,45,31,1
16.43324565887451,37,37,43,171,58,36,45,29,1
16.450757265090942,40,35,43,156,48,36,42,30,1
16.471304893493652,40,33,42,146,51,34,42,32,1
16.493719816207886,39,24,41,159,54,30,36,31,1
16.508671045303345,37,27,41,143,53,31,36,33,1
16.531891107559204,37,24,37,131,50,31,37,37,1
16.55377984046936,31,30,38,129,54,30,37,39,1
16.570653915405273,30,30,44,146,53,32,37,37,1
16.591201543807983,26,36,42,134,42,32,33,35,1
16.61414885520935,25,33,38,147,45,31,32,34,1
16.63061809539795,30,35,40,166,45,35,34,30,1
16.651291847229004,30,37,40,171,52,36,34,30,1
16.673752784729004,33,37,35,157,51,35,33,30,1
16.69264245033264,35,38,34,164,52,38,36,35,1
16.711418628692627,34,40,37,172,57,38,36,37,1
16.733901023864746,31,38,36,150,53,36,33,36,1
16.75048542022705,33,35,35,153,45,34,34,37,1
16.77137279510498,29,40,32,160,50,39,35,38,1
16.7943217754364,29,34,35,151,48,35,31,37,1
16.810392379760742,30,38,34,118,41,35,32,38,1
16.831408500671387,31,38,35,129,42,35,34,38,1
16.853740692138672,30,38,37,129,43,36,31,34,1
16.87105941772461,32,32,36,121,38,30,30,33,1
16.891810178756714,31,32,39,128,39,31,30,29,1
16.914047241210938,32,26,36,133,37,30,30,25,1
16.93667697906494,31,28,35,135,40,30,33,26,1
16.9589262008667,31,27,34,134,38,27,35,26,1
16.975926876068115,32,30,35,134,39,28,34,28,1
16.996780157089233,34,35,36,152,42,26,36,28,1
17.018876791000366,33,36,37,147,43,26,37,31,1
17.033768892288208,34,35,37,138,43,26,34,30,1
17.056243419647217,35,33,36,147,42,25,32,30,1
17.079663276672363,34,34,39,149,46,27,38,29,1
17.09374690055847,34,32,35,136,48,26,36,31,1
17.116391897201538,34,38,40,146,56,30,40,29,1
17.138763666152954,33,40,41,155,56,30,39,30,1
17.15384531021118,33,45,41,144,60,30,41,30,1
17.17644739151001,34,46,41,146,56,28,37,32,1
17.19927740097046,35,47,46,152,60,30,40,32,1
17.2137508392334,33,42,45,178,58,26,35,31,1
17.236728191375732,32,40,45,177,62,28,36,30,1
17.25877594947815,31,33,43,173,63,29,38,32,1
17.27420473098755,31,30,46,192,65,30,38,29,1
17.296645402908325,31,26,40,179,60,32,38,30,1
17.318761110305786,34,25,39,155,58,34,39,30,1
17.334091901779175,35,25,38,137,56,31,37,30,1
17.356194496154785,36,28,41,146,55,31,34,32,1
17.3795268535614,34,26,37,135,52,30,34,33,1
17.393879413604736,35,29,36,136,53,30,35,32,1
17.41637372970581,36,29,35,156,52,29,34,35,1
17.43912625312805,37,32,35,156,48,31,36,35,1
17.45374035835266,36,28,34,148,44,33,34,34,1
17.476293087005615,37,35,47,162,54,35,38,35,1
17.498783826828003,35,31,48,186,52,33,36,35,1
17.513651609420776,31,33,51,168,50,31,36,34,1
17.5363290309906,32,33,53,176,52,30,36,36,1
17.559141874313354,38,35,52,198,55,28,39,34,1
17.574625968933105,37,30,39,175,45,25,35,33,1
17.596596717834473,37,31,46,180,45,25,33,32,1
17.61876153945923,38,33,42,170,41,29,34,33,1
17.63387966156006,39,36,38,164,40,32,33,29,1
17.656349420547485,36,39,39,139,43,35,32,29,1
17.67882251739502,35,40,41,145,48,37,33,27,1
17.70165705680847,36,39,34,98,48,37,33,27,1
17.715924978256226,37,40,36,118,55,38,36,27,1
17.73947310447693,34,39,36,128,55,36,37,27,1
17.761852979660034,33,36,34,146,50,34,38,27,1
17.77661919593811,34,34,32,171,48,33,36,29,1
17.799208641052246,30,39,34,194,59,37,40,30,1
17.820772171020508,32,34,33,186,53,34,36,29,1
17.836756944656372,33,35,37,188,56,35,34,32,1
17.85880994796753,35,35,39,187,58,33,33,34,1
17.881463766098022,36,35,45,184,61,32,32,34,1
17.896428108215332,37,30,44,159,55,31,28,33,1
17.91902995109558,33,34,45,180,58,32,34,33,1
17.941287517547607,33,34,43,175,55,31,33,34,1
17.95629382133484,32,36,52,171,58,35,36,32,1
17.97890329360962,35,39,49,147,54,37,38,30,1
18.002713203430176,34,38,48,146,51,34,37,31,1
18.01631474494934,36,36,48,132,55,33,34,34,1
18.03877067565918,37,32,49,129,55,32,34,34,1
18.061249494552612,34,30,40,129,50,30,32,34,1
18.07624316215515,34,30,39,132,50,29,27,34,1
18.09877300262451,37,31,43,160,51,33,30,33,1
18.12139892578125,37,30,46,155,47,34,29,33,1
18.136335611343384,36,35,44,146,46,35,35,33,1
18.158756494522095,38,37,43,151,46,33,37,33,1
18.181864023208618,37,39,42,161,45,34,42,35,1
18.19638204574585,37,38,42,141,48,36,43,39,1
18.219194173812866,34,40,44,168,49,36,44,38,1
18.24184775352478,35,36,48,181,52,36,40,38,1
18.256348371505737,35,34,51,174,52,36,36,39,1
18.278799772262573,33,31,50,156,55,35,35,39,1
18.30153250694275,31,32,48,171,49,31,33,34,1
18.31726861000061,36,34,47,179,46,37,44,41,1
18.338772296905518,34,33,40,171,42,36,42,38,1
18.361451625823975,34,34,37,164,40,36,45,37,1
18.376317501068115,35,35,38,201,45,40,44,38,1
18.399192810058594,35,35,40,202,50,37,43,38,1
18.421492338180542,33,31,37,168,49,31,33,29,1
18.437729358673096,35,34,44,166,55,35,38,33,1
18.458779096603394,36,35,46,192,58,35,36,35,1
18.481662034988403,35,34,46,162,51,32,36,33,1
18.496347904205322,37,36,52,145,56,38,43,38,1
18.51870584487915,35,38,55,155,59,40,43,41,1
18.541626453399658,36,39,53,211,58,38,41,38,1
18.556345462799072,33,39,49,187,57,40,43,37,1
18.579139947891235,31,37,47,187,56,38,43,35,1
18.601901054382324,29,40,40,186,50,36,39,29,1
18.617355585098267,34,40,39,180,49,35,42,32,1
18.638911247253418,34,41,40,119,44,35,40,30,1
18.661436319351196,33,40,40,125,48,35,38,32,1
18.68473529815674,36,40,41,136,52,37,38,32,1
18.70071315765381,36,34,41,139,47,32,35,33,1
18.72149157524109,34,36,37,144,44,28,32,28,1
18.74490737915039,36,31,33,144,46,31,31,31,1
18.758740425109863,37,31,36,167,40,29,31,31,1
18.782190561294556,37,35,41,151,40,34,29,31,1
18.804543495178223,39,41,48,161,49,35,34,35,1
18.81984782218933,37,37,48,183,49,35,34,35,1
18.841426372528076,35,38,52,186,51,34,35,35,1
18.864665985107422,36,41,50,168,51,35,37,38,1
18.878782272338867,38,41,51,166,52,29,39,39,1
18.901499032974243,35,37,40,158,44,30,35,36,1
18.924675703048706,37,36,45,126,45,30,32,38,1
18.93877410888672,38,36,41,113,40,28,29,34,1
18.96153426170349,40,31,41,126,43,30,27,31,1
18.984830856323242,35,25,36,141,40,31,25,32,1
18.99908685684204,34,24,36,136,43,31,26,31,1
19.021379232406616,34,24,33,145,50,36,27,30,1
19.045085430145264,33,24,37,151,53,35,30,31,1
19.05877685546875,27,25,38,143,53,33,29,31,1
19.082396030426025,30,25,35,135,53,38,30,29,1
19.104515075683594,31,32,37,126,56,39,34,36,1
19.118839025497437,33,33,35,193,55,36,33,38,1
19.141706705093384,39,36,40,196,55,35,31,42,1
19.165014505386353,40,38,47,201,60,40,37,44,1
19.1795973777771,39,38,53,220,57,36,35,46,1
19.201561450958252,39,31,54,232,53,33,31,39,1
19.224783182144165,36,34,56,174,57,37,38,38,1
19.239129066467285,29,32,52,176,54,39,38,32,1
19.261775255203247,31,31,47,194,46,35,37,34,1
19.28452754020691,31,34,41,177,49,34,37,32,1
19.29972219467163,33,35,40,164,50,35,38,32,1
19.32134246826172,33,35,39,198,46,34,32,36,1
19.344557285308838,34,35,35,190,50,35,34,38,1
19.358771324157715,37,37,33,160,51,35,31,33,1
19.38209080696106,35,36,36,180,48,37,33,32,1
19.404658794403076,35,38,41,194,55,40,34,35,1
19.418822526931763,39,33,45,183,61,42,38,35,1
19.441373348236084,39,33,47,182,58,39,41,35,1
19.46497631072998,36,30,49,185,61,39,40,37,1
19.479061365127563,37,32,49,175,61,39,42,39,1
19.5013644695282,35,31,46,163,56,36,42,39,1
19.524560689926147,31,33,44,134,43,32,39,39,1
19.538767099380493,32,30,43,133,47,33,34,37,1
19.561450481414795,32,34,43,159,47,32,36,37,1
19.5845468044281,32,30,44,151,49,33,35,34,1
19.607330322265625,32,29,44,156,48,32,34,32,1
19.621472358703613,30,29,40,161,45,31,34,25,1
19.644243717193604,29,34,40,162,44,32,39,26,1
19.666968822479248,31,33,39,148,53,35,41,28,1
19.68090009689331,30,36,38,178,54,31,44,27,1
19.704858541488647,31,37,38,174,55,35,48,29,1
19.727015733718872,36,38,42,168,58,36,46,34,1
19.742627143859863,37,38,45,187,64,37,43,34,1
19.7647922039032,36,36,44,186,55,36,37,32,1
19.787312269210815,37,33,43,147,52,38,33,33,1
19.801470518112183,37,35,46,147,54,38,29,35,1
19.824983835220337,35,39,44,152,54,39,29,34,1
19.84730887413025,35,41,43,138,44,37,31,35,1
19.861506938934326,35,45,41,135,42,35,33,36,1
19.884654998779297,35,45,39,130,40,33,31,35,1
19.906546354293823,34,47,35,162,41,37,33,32,1
19.921648502349854,35,44,42,167,44,38,35,35,1
19.944636821746826,34,39,41,160,45,38,35,34,1
19.96703028678894,30,39,41,168,50,41,38,34,1
19.980934143066406,29,39,43,167,51,42,40,33,1
20.004646062850952,31,33,43,138,50,38,40,33,1
20.026634216308594,31,31,37,133,48,36,39,27,1
20.04104447364807,29,34,38,169,49,39,42,26,1
20.06450867652893,31,29,39,158,42,36,39,30,1
20.08748173713684,30,34,38,168,48,41,41,31,1
20.10180950164795,30,37,42,173,56,45,40,34,1
20.1242778301239,31,38,39,170,56,45,38,34,1
20.14701223373413,32,37,42,136,60,43,37,35,1
20.161779165267944,33,39,42,142,65,44,36,34,1
20.1846866607666,34,37,44,143,64,41,36,37,1
20.20714783668518,32,35,41,144,54,36,34,34,1
20.221558094024658,32,35,46,149,58,36,38,36,1
20.252130031585693,32,36,46,156,64,37,38,34,1
20.267106533050537,30,33,46,149,62,36,39,34,1
20.281625747680664,33,32,48,145,62,33,37,35,1
20.30474543571472,33,31,46,134,63,34,38,37,1
20.326998233795166,34,32,42,144,60,32,36,37,1
20.341508626937866,34,30,42,185,54,31,36,39,1
20.364588975906372,35,32,47,195,62,34,36,38,1
20.387217044830322,33,31,43,196,59,35,35,34,1
20.401463270187378,36,31,42,195,59,32,34,33,1
20.424877643585205,35,28,43,181,57,35,33,31,1
20.446953058242798,37,30,41,159,55,34,29,29,1
20.461535930633545,38,30,38,145,47,31,30,27,1
20.484845399856567,39,31,38,144,47,29,32,25,1
20.507073402404785,38,31,41,150,49,31,35,29,1
20.529656887054443,34,32,38,148,46,28,36,28,1
20.545270442962646,32,28,35,132,42,30,36,28,1
20.56692934036255,28,31,34,146,45,30,33,27,1
20.597086668014526,27,30,35,145,44,29,32,27,1
20.604623079299927,24,34,35,142,43,32,35,25,1
20.627405405044556,28,39,36,152,50,33,36,27,1
20.65027379989624,36,44,39,140,53,31,37,27,1
20.6645667552948,41,43,35,126,49,33,36,27,1
20.687363386154175,41,43,40,131,52,36,36,30,1
20.709619283676147,42,39,38,139,50,33,32,29,1
20.725170373916626,41,34,37,130,45,33,31,29,1
20.746551513671875,34,28,35,135,43,37,31,27,1
20.769585609436035,28,26,37,130,42,36,33,27,1
20.784607887268066,31,25,32,146,38,33,32,25,1
20.807130813598633,31,29,38,152,40,34,34,28,1
20.829935550689697,33,30,37,168,40,34,32,29,1
20.84377360343933,37,31,38,182,41,31,33,35,1
20.8666934967041,41,32,42,183,42,35,36,36,1
20.88947367668152,45,31,44,166,42,36,37,39,1
20.904266595840454,44,31,37,155,41,33,32,39,1
20.92708659172058,43,29,39,150,43,33,33,41,1
20.949329137802124,40,30,39,122,40,32,32,38,1
20.963412284851074,44,29,41,129,43,26,29,39,1
20.986642360687256,40,33,39,126,45,28,30,38,1
21.009823322296143,39,32,43,141,50,36,35,37,1
21.02376699447632,39,31,43,126,50,35,35,35,1
21.046898126602173,40,32,43,129,49,35,37,33,1
21.069918870925903,33,32,39,165,49,36,37,35,1
21.083921670913696,34,31,42,178,50,39,39,35,1
21.107074737548828,35,30,38,165,43,31,36,34,1
21.129536867141724,32,32,40,171,44,35,35,33,1
21.14393448829651,34,31,43,180,47,39,37,34,1
21.167407751083374,36,30,41,145,44,38,36,32,1
21.18967342376709,34,26,39,130,39,34,35,30,1
21.204067707061768,36,31,44,136,54,37,37,30,1
21.227020502090454,36,35,46,131,56,32,40,30,1
21.249781131744385,33,35,44,118,54,29,37,30,1
21.263800144195557,31,36,43,113,55,30,40,30,1
21.2869713306427,33,39,44,116,56,30,39,30,1
21.309577703475952,36,38,41,110,41,27,39,34,1
21.32401442527771,35,36,37,110,39,35,38,33,1
21.347108364105225,37,34,33,132,38,35,36,38,1
21.369733810424805,35,32,32,140,40,33,34,35,1
21.384353160858154,37,33,35,137,40,34,35,36,1
21.4071102142334,31,34,35,148,42,35,33,35,1
21.431138515472412,29,31,35,155,38,27,31,35,1
21.443921327590942,35,36,46,167,44,31,34,34,1
21.467618227005005,37,36,44,160,42,31,35,35,1
21.48971962928772,36,33,40,162,43,30,32,34,1
21.51221227645874,39,30,39,151,46,31,37,33,1
21.527164936065674,42,31,37,136,46,34,38,33,1
21.549797773361206,35,29,26,98,41,32,36,30,1
21.572075843811035,36,30,25,103,38,31,37,31,1
21.587156534194946,32,30,33,108,45,33,39,36,1
21.60957098007202,32,34,34,108,41,32,33,37,1
21.632351398468018,31,36,36,120,41,30,31,36,1
21.64708423614502,31,38,42,130,49,34,33,35,1
21.66974115371704,32,38,42,124,50,34,35,35,1
21.692944526672363,32,44,38,130,43,35,35,33,1
21.70763850212097,33,43,42,142,49,37,38,31,1
21.729779481887817,36,41,41,146,53,37,38,31,1
21.752267599105835,37,41,35,148,56,35,39,34,1
21.76683020591736,34,41,36,151,64,35,36,34,1
21.789849758148193,37,36,35,151,64,35,34,34,1
21.812135219573975,36,36,27,138,59,36,30,31,1
21.826876401901245,33,34,38,138,58,39,34,34,1
21.84944176673889,33,30,37,127,50,36,32,31,1
21.872182369232178,33,30,38,133,47,39,32,31,1
21.886784076690674,33,32,48,142,52,38,35,29,1
21.909734964370728,33,31,50,147,51,34,36,30,1
21.932825803756714,33,35,47,141,50,35,40,29,1
21.94663429260254,35,37,48,162,52,38,41,29,1
21.969524383544922,34,40,47,159,43,35,40,29,1
21.992397785186768,34,38,40,138,41,39,42,32,1
22.006454467773438,32,40,40,143,43,42,42,33,1
22.029781818389893,32,37,36,137,41,38,37,30,1
22.053054094314575,29,35,39,114,39,34,34,32,1
22.066389322280884,36,37,50,152,52,37,41,36,1
22.089536905288696,37,38,46,180,54,31,40,38,1
22.11210560798645,36,37,49,189,55,29,39,39,1
22.126471757888794,36,39,51,207,61,32,39,40,1
22.149922370910645,37,38,53,244,63,33,42,41,1
22.17213273048401,32,35,43,223,54,30,35,39,1
22.186508893966675,33,35,46,225,61,33,41,39,1
22.209577560424805,35,37,43,212,63,36,41,38,1
22.232434034347534,35,34,42,197,62,35,40,37,1
22.246845722198486,38,34,35,164,57,34,41,34,1
22.269237756729126,41,33,41,181,58,34,41,36,1
22.299123287200928,38,34,42,187,55,35,36,33,1
22.306613206863403,37,33,43,204,53,30,38,33,1
22.32970905303955,39,36,45,241,51,36,40,35,1
22.352211952209473,38,39,47,256,57,38,39,33,1
22.366663932800293,37,39,44,261,59,37,39,32,1
22.389893531799316,38,39,45,279,56,37,42,33,1
22.412237644195557,38,41,43,269,53,40,41,33,1
22.426515817642212,39,43,47,249,53,36,44,34,1
22.44954538345337,39,41,46,244,48,38,43,36,1
22.473864555358887,38,42,48,235,48,40,46,34,1
22.494926691055298,37,38,45,200,47,41,43,36,1
22.50958228111267,39,36,46,204,50,40,44,33,1
22.53224515914917,34,35,47,220,50,39,39,37,1
22.554893970489502,34,36,49,195,52,35,39,39,1
22.56965160369873,33,36,47,185,51,34,37,40,1
22.59211778640747,35,37,50,200,55,32,33,39,1
22.614900827407837,35,35,51,219,58,29,30,43,1
22.629568099975586,34,37,45,213,56,32,32,42,1
22.65220808982849,38,38,45,231,60,33,32,41,1
22.674636363983154,38,41,43,258,58,33,30,43,1
22.689610719680786,38,43,44,267,59,33,34,43,1
22.71207857131958,38,46,43,255,56,33,35,40,1
22.734686613082886,38,41,41,249,55,30,35,38,1
22.74888825416565,36,38,61,276,53,31,35,38,1
22.772106885910034,36,38,74,272,53,32,36,34,1
22.7945818901062,42,34,76,280,52,30,33,37,1
22.808950424194336,43,28,82,315,62,31,33,38,1
22.832550287246704,43,31,83,305,66,30,32,36,1
22.854691982269287,44,35,70,286,64,32,36,34,1
22.869025230407715,42,33,55,271,67,32,40,35,1
22.892192363739014,38,34,48,232,62,34,41,32,1
22.91477060317993,34,37,41,176,55,37,46,33,1
22.928898572921753,38,37,39,205,55,39,46,36,1
22.95213532447815,34,32,36,202,59,39,43,36,1
22.97490954399109,37,32,37,219,57,38,40,38,1
22.989351272583008,36,31,40,233,61,36,39,36,1
23.012130737304688,37,29,40,246,61,30,35,36,1
23.03481125831604,34,30,38,229,58,30,37,34,1
23.049107551574707,35,32,38,221,56,28,36,35,1
23.072187185287476,35,35,39,205,55,32,40,34,1
23.095226526260376,34,34,35,201,47,34,38,35,1
23.108971118927002,36,34,35,190,41,36,35,32,1
23.133262872695923,38,33,39,189,42,34,35,33,1
23.154006958007812,37,32,40,172,36,35,34,33,1
23.176527738571167,41,27,42,161,38,32,31,32,1
23.193321704864502,41,41,50,182,62,49,48,38,1
23.215384483337402,37,44,47,178,63,50,48,37,1
23.23648166656494,36,43,44,232,68,50,47,36,1
23.258873224258423,36,43,46,238,77,52,54,36,1
23.2739577293396,32,44,43,251,77,52,53,38,1
23.295989990234375,33,35,35,235,61,35,42,32,1
23.313276529312134,32,35,36,231,64,35,45,33,1
23.33420181274414,29,35,36,220,56,35,44,32,1
23.356486082077026,28,34,37,228,47,32,38,30,1
23.373746633529663,26,37,37,231,44,31,39,26,1
23.394301652908325,28,34,36,228,43,36,36,24,1
23.41701626777649,28,33,40,240,50,34,33,28,1
23.433457374572754,30,39,50,213,62,37,37,36,1
23.454421758651733,31,40,50,204,61,36,36,36,1
23.476783514022827,34,38,52,195,66,41,38,36,1
23.493292093276978,31,38,51,185,65,38,37,37,1
23.51412343978882,32,38,49,170,60,36,36,38,1
23.5364727973938,31,32,39,175,49,33,32,32,1
23.553357362747192,30,31,40,202,55,32,32,34,1
23.574014902114868,32,29,43,191,60,25,31,39,1
23.597374439239502,36,33,46,215,61,28,36,40,1
23.613855123519897,37,34,47,236,59,30,36,36,1
23.63430094718933,41,36,48,215,60,34,38,38,1
23.656518936157227,42,37,48,186,55,37,41,37,1
23.673274040222168,38,37,44,196,44,37,38,34,1
23.694445848464966,35,37,45,193,49,38,38,35,1
23.716542959213257,35,35,46,211,59,40,41,34,1
23.73323392868042,33,36,46,248,61,39,40,34,1
23.75420045852661,31,37,47,255,64,41,41,36,1
23.77643060684204,32,39,53,272,65,42,41,37,1
23.793924570083618,32,37,49,259,61,38,37,37,1
23.81391143798828,33,38,46,224,49,35,36,37,1
23.83780789375305,31,35,46,179,45,32,34,36,1
23.85344409942627,34,33,43,197,39,28,32,34,1
23.876819133758545,36,28,43,170,41,28,31,36,1
23.896490812301636,37,28,48,165,40,31,32,37,1
23.913900136947632,37,39,52,168,65,36,36,43,1
23.934306621551514,37,40,51,195,66,37,38,44,1
23.956966638565063,36,39,54,184,69,36,34,44,1
23.97400999069214,33,43,49,177,70,37,37,42,1
23.99444270133972,32,44,49,182,75,39,42,40,1
24.016910314559937,33,34,52,215,59,33,36,36,1
24.033441305160522,31,39,52,194,57,37,37,37,1
24.05406641960144,31,39,48,174,51,36,39,37,1
24.07653307914734,31,40,54,190,54,38,38,36,1
24.093953132629395,33,40,50,184,50,37,36,38,1
24.11397647857666,31,39,40,150,47,37,37,37,1
24.136589765548706,34,34,38,170,44,33,36,36,1
24.154444694519043,32,35,38,173,47,32,35,37,1
24.174051523208618,35,29,30,157,46,32,34,34,1
24.196726322174072,34,25,33,173,47,30,35,32,1
24.213704109191895,34,34,38,186,53,34,38,32,1
24.23421335220337,32,35,42,172,55,34,36,29,1
24.25772213935852,33,35,45,165,56,37,40,29,1
24.273484468460083,39,40,45,280,58,36,44,31,1
24.29419207572937,42,44,44,277,57,34,43,34,1
24.31649398803711,42,40,42,264,50,35,41,33,1
24.33442997932434,46,38,43,278,56,37,41,34,1
24.354089975357056,46,39,42,290,55,37,39,32,1
24.376899003982544,40,39,46,197,63,46,43,41,1
24.398905992507935,35,35,42,205,61,49,43,41,1
24.41352128982544,39,36,41,218,77,52,47,45,1
24.436858892440796,34,39,37,197,73,51,48,44,1
24.458929538726807,34,42,42,209,78,56,50,48,1
24.473974227905273,34,40,38,220,68,49,44,42,1
24.496582746505737,37,45,47,215,77,52,48,44,1
24.519004106521606,33,45,47,206,65,49,45,42,1
24.534225940704346,32,45,47,214,71,49,48,43,1
24.557530164718628,31,43,48,206,72,43,49,41,1
24.578956365585327,33,42,53,193,78,40,48,39,1
24.594053983688354,37,42,55,223,74,36,45,36,1
24.61686420440674,38,40,57,222,74,32,43,34,1
24.639085054397583,39,47,67,217,78,42,49,37,1
24.65423274040222,40,48,64,198,73,41,46,36,1
24.67661738395691,36,52,61,198,69,46,49,35,1
24.69912075996399,29,48,56,146,66,45,46,33,1
24.714020013809204,27,49,56,171,67,46,47,35,1
24.73638939857483,27,44,48,172,59,43,41,36,1
24.759241104125977,26,42,49,182,58,43,40,35,1
24.774292707443237,28,35,45,170,56,40,36,37,1
24.796672344207764,26,34,44,203,57,38,35,38,1
24.81912088394165,30,34,41,188,56,37,34,35,1
24.833635568618774,32,33,38,185,59,32,35,31,1
24.856504678726196,34,32,37,175,61,30,37,30,1
24.879112005233765,34,33,36,191,58,28,37,30,1
24.894052505493164,35,32,37,165,55,28,40,32,1
24.916420221328735,33,36,41,155,50,32,48,33,1
24.93899893760681,28,31,37,182,41,29,44,32,1
24.961493253707886,29,34,43,192,44,33,47,35,1
24.97648787498474,30,38,44,183,54,36,50,35,1
24.998902082443237,31,38,44,213,54,36,46,34,1
25.014416217803955,35,33,44,220,57,31,38,35,1
25.036721229553223,38,34,46,201,59,32,39,37,1
25.058934211730957,35,36,46,222,58,32,35,34,1
25.07403588294983,35,30,45,222,48,30,33,33,1
25.097614526748657,37,31,49,197,49,28,33,38,1
25.11886239051819,34,34,50,206,57,34,35,43,1
25.136866569519043,36,43,51,217,63,40,41,43,1
25.15647602081299,36,38,44,187,62,39,38,42,1
25.179779767990112,36,40,44,171,65,38,39,43,1
25.193564653396606,35,43,47,170,73,45,50,40,1
25.216026544570923,37,45,46,165,71,42,54,33,1
25.239383220672607,36,38,45,165,67,39,51,32,1
25.25407886505127,36,45,48,188,66,41,53,31,1
25.276576280593872,40,46,55,209,71,44,55,35,1
25.298964500427246,41,43,51,218,65,40,46,36,1
25.32146716117859,41,38,58,203,64,40,46,39,1
25.336604833602905,42,37,59,190,64,40,45,40,1
25.358948945999146,44,28,60,178,63,36,43,39,1
25.38163948059082,39,29,54,170,55,36,40,38,1
25.39791464805603,39,29,53,169,54,36,39,35,1
25.419556856155396,36,29,41,174,49,35,32,31,1
25.44165587425232,34,29,40,173,46,33,33,28,1
25.456873655319214,33,30,41,196,46,35,34,33,1
25.479105472564697,32,27,41,188,44,32,30,31,1
25.501830339431763,34,31,40,214,46,30,30,31,1
25.516578674316406,39,31,39,232,41,28,28,34,1
25.53895616531372,38,29,45,235,44,27,25,37,1
25.56149983406067,38,28,45,240,44,27,24,33,1
25.578801155090332,43,29,47,290,53,27,23,37,1
25.598949909210205,40,26,48,277,51,29,26,36,1
25.621498823165894,37,26,48,274,53,31,25,36,1
25.636746644973755,36,29,45,299,60,31,26,32,1
25.65902042388916,36,37,44,281,72,33,35,34,1
25.681486129760742,31,36,41,261,69,32,37,29,1
25.696510791778564,32,38,40,275,79,31,38,30,1
25.719066858291626,29,38,40,269,78,28,39,29,1
25.741974353790283,33,36,46,251,70,30,41,34,1
25.756623029708862,34,35,54,277,77,37,45,38,1
25.778852224349976,37,37,56,271,76,38,44,38,1
25.80152654647827,34,34,55,250,72,39,43,38,1
25.816617012023926,39,40,62,250,77,42,45,38,1
25.838994026184082,38,41,56,252,78,42,47,38,1
25.862120389938354,37,38,50,236,62,36,40,40,1
25.876628875732422,34,46,47,229,62,41,42,42,1
25.89919948577881,41,47,51,245,56,40,42,44,1
25.921873331069946,38,44,44,250,52,37,39,45,1
25.936911821365356,40,52,48,257,54,43,40,43,1
25.958600759506226,39,50,44,246,48,39,35,38,1
25.98171067237854,39,41,46,246,46,35,38,38,1
25.99695348739624,41,48,48,234,50,39,42,39,1
26.019278526306152,44,49,50,240,46,39,43,37,1
26.041229963302612,44,40,46,225,45,34,40,38,1
26.056130170822144,44,44,47,221,53,37,46,39,1
26.079009532928467,46,47,45,263,53,37,47,38,1
26.101717948913574,41,38,41,265,51,36,46,36,1
26.11657738685608,37,39,39,276,60,42,49,37,1
26.146048069000244,34,42,38,281,58,41,47,37,1
26.16141128540039,36,41,45,295,58,42,45,32,1
26.176751375198364,32,39,47,252,57,42,39,34,1
26.198601722717285,33,40,47,257,57,44,37,34,1
26.222076177597046,37,35,46,233,50,40,32,35,1
26.23655414581299,40,32,51,238,54,40,33,37,1
26.25908899307251,41,30,48,212,53,38,33,37,1
26.282382488250732,43,29,49,227,56,38,32,37,1
26.304129362106323,42,28,49,216,52,34,32,37,1
26.31914210319519,38,35,52,216,59,40,38,36,1
26.34154987335205,38,35,48,212,56,40,38,34,1
26.3640718460083,38,35,52,231,55,39,39,39,1
26.37905192375183,36,48,54,228,59,44,48,38,1
26.40145182609558,40,50,58,269,59,42,48,37,1
26.42399787902832,39,46,53,262,53,35,43,36,1
26.439146757125854,34,53,58,294,59,40,50,38,1
26.461543798446655,40,58,59,299,59,45,51,36,1
26.485032558441162,39,51,59,313,55,41,45,35,1
26.499190092086792,41,60,57,279,54,50,57,35,1
26.521633625030518,45,64,62,285,53,52,59,35,1
26.54397201538086,47,61,59,254,54,51,56,32,1
26.559352159500122,46,62,56,264,60,49,56,35,1
26.58155131340027,45,61,55,239,60,47,55,34,1
26.60403060913086,40,52,54,252,63,38,43,33,1
26.61907696723938,40,50,50,247,62,36,44,34,1
26.641520500183105,40,47,48,274,60,38,40,36,1
26.664632320404053,37,40,48,273,50,37,36,35,1
26.679516792297363,38,37,45,272,49,37,38,37,1
26.716834545135498,38,34,43,271,47,39,38,38,1
26.731682300567627,40,32,50,277,53,39,37,39,1
26.746598482131958,47,33,49,246,50,35,41,44,1
26.768506288528442,46,38,47,232,52,33,41,43,1
26.784281492233276,48,42,50,234,57,37,40,46,1
26.799702405929565,48,45,47,238,61,38,41,49,1
26.821519374847412,45,45,40,248,57,36,39,52,1
26.844147443771362,45,45,45,255,60,39,40,62,1
26.858965396881104,52,45,47,279,63,42,44,79,1
26.882189512252808,72,45,42,262,59,39,43,97,1
26.904081106185913,89,42,43,258,58,37,43,117,1
26.91867160797119,107,47,42,242,56,37,45,129,1
26.94152331352234,119,49,40,217,52,36,46,141,1
26.964043855667114,133,45,44,199,50,32,47,137,1
26.97904372215271,124,42,44,216,51,30,48,124,1
27.001115083694458,115,41,50,200,50,31,47,105,1
27.02426767349243,98,36,52,205,53,33,44,88,1
27.0389564037323,79,31,48,210,53,33,42,53,1
27.06152653694153,45,29,41,201,48,32,36,40,1
27.08403444290161,39,30,45,188,47,34,34,40,1
27.099275827407837,36,32,42,197,44,32,33,34,1
27.121734619140625,36,40,39,210,40,33,33,30,1
27.144032955169678,35,41,49,232,46,33,32,30,1
27.158974409103394,35,43,51,217,50,34,32,28,1
27.182520151138306,34,44,50,225,51,31,32,28,1
27.204007387161255,35,42,48,214,52,33,33,34,1
27.227263689041138,34,34,48,211,54,30,29,34,1
27.241641521453857,35,33,41,183,52,31,30,35,1
27.264164447784424,36,30,37,187,50,33,35,36,1
27.28935432434082,36,29,37,178,50,34,36,36,1
27.301855087280273,32,29,39,193,53,34,37,31,1
27.324279308319092,35,32,44,246,56,38,42,34,1
27.34661030769348,35,30,46,250,53,34,40,32,1
27.361742734909058,34,32,49,264,53,35,38,34,1
27.38460350036621,36,31,50,300,52,35,40,37,1
27.40673279762268,34,32,46,291,49,34,38,36,1
27.421987771987915,31,33,41,238,42,29,33,36,1
27.444010257720947,29,32,44,233,49,32,33,36,1
27.467222690582275,28,31,42,261,50,30,29,34,1
27.4819495677948,29,32,49,225,55,32,29,36,1
27.504053831100464,33,35,52,228,55,32,30,39,1
27.526596069335938,37,35,56,239,57,35,33,40,1
27.5413339138031,37,36,49,260,52,34,34,39,1
27.56433868408203,37,37,48,206,50,36,38,40,1
27.586676120758057,38,38,41,246,46,35,41,41,1
27.602091312408447,35,35,38,245,49,36,40,37,1
27.624032020568848,34,32,34,235,48,35,39,36,1
27.64658498764038,38,30,39,218,46,33,38,38,1
27.661540031433105,37,28,39,231,47,30,33,35,1
27.684083700180054,36,29,44,192,47,33,26,31,1
27.706650733947754,36,28,44,245,45,36,27,35,1
27.72183895111084,36,29,45,252,45,35,26,38,1
27.743633031845093,38,33,56,261,50,35,29,38,1
27.76627278327942,42,35,59,289,66,42,38,41,1
27.781957387924194,44,36,54,288,64,39,38,40,1
27.80429196357727,45,34,55,234,64,36,38,39,1
27.82657790184021,44,35,57,270,69,37,38,40,1
27.84158182144165,42,31,44,266,69,36,37,37,1
27.864176273345947,38,29,39,239,54,31,29,35,1
27.886927843093872,37,38,39,237,59,35,29,35,1
27.90209674835205,39,46,46,305,61,35,27,38,1
27.9240882396698,39,46,43,281,54,36,29,34,1
27.946727991104126,38,48,48,284,53,36,31,37,1
27.96189045906067,38,47,48,279,53,33,32,36,1
27.984290838241577,36,42,51,288,50,32,34,36,1
28.00669813156128,33,35,45,227,50,35,38,33,1
28.021104335784912,32,32,44,233,53,34,38,35,1
28.044116497039795,34,34,45,227,53,39,40,35,1
28.06664752960205,38,35,48,230,60,41,45,35,1
28.0815372467041,40,32,50,257,60,38,43,34,1
28.104186296463013,41,40,51,258,70,43,48,34,1
28.126776218414307,45,41,50,248,68,43,46,33,1
28.14995574951172,41,40,48,250,68,39,43,31,1
28.16419768333435,38,41,50,310,63,37,38,33,1
28.186861515045166,38,40,49,278,65,37,39,32,1
28.21146535873413,38,31,47,276,53,27,30,31,1
28.223714113235474,34,28,51,297,56,28,33,29,1
28.246646642684937,37,28,46,295,54,28,32,31,1
28.270180702209473,38,29,42,224,55,28,31,29,1
28.28497004508972,35,31,36,230,52,27,30,30,1
28.30661630630493,34,32,44,260,55,31,32,31,1
28.329782962799072,31,34,42,223,52,31,30,31,1
28.34359097480774,30,33,45,216,52,30,29,30,1
28.36703062057495,26,39,44,230,48,35,29,28,1
28.389960765838623,28,40,45,288,49,37,31,29,1
28.40411138534546,27,43,38,263,46,35,29,28,1
28.426613330841064,31,41,37,264,45,33,28,28,1
28.449975728988647,32,42,36,262,46,34,33,30,1
28.464107036590576,35,37,42,256,48,35,35,34,1
28.4867000579834,43,37,54,255,54,37,40,42,1
28.509883165359497,47,36,61,274,56,36,41,47,1
28.524152994155884,46,38,63,302,60,38,43,47,1
28.546224355697632,45,39,63,312,61,40,42,44,1
28.570326328277588,45,39,59,315,59,37,42,43,1
28.58414363861084,36,39,51,267,52,32,37,36,1
28.60698390007019,32,38,46,244,50,32,35,30,1
28.62988042831421,31,37,47,236,56,36,36,31,1
28.644144773483276,33,36,54,243,64,35,34,34,1
28.666550636291504,33,32,56,253,65,36,33,33,1
28.690089225769043,33,30,55,253,66,37,31,30,1
28.704081058502197,35,30,52,271,69,41,38,33,1
28.72664475440979,33,31,48,259,62,38,37,34,1
28.750280141830444,31,31,40,242,52,36,35,36,1
28.76412272453308,31,32,41,250,51,35,34,37,1
28.78670644760132,33,39,51,250,54,41,42,40,1
28.810070276260376,30,38,52,229,45,35,36,39,1
28.82403564453125,30,37,51,225,42,35,37,36,1
28.854822158813477,30,38,52,249,51,38,40,35,1
28.869868755340576,33,37,57,231,58,37,41,41,1
28.884315729141235,33,31,48,218,52,33,36,38,1
28.90741515159607,32,36,52,248,68,36,41,38,1
28.93035364151001,35,46,53,227,73,40,45,41,1
28.944210052490234,35,49,54,229,69,42,45,39,1
28.96678876876831,33,51,48,227,70,45,47,34,1
28.99021577835083,30,50,48,256,74,42,47,35,1
29.004011869430542,30,48,44,219,64,43,47,33,1
29.026988983154297,29,41,51,279,64,39,43,31,1
29.050026416778564,32,36,56,330,65,39,42,37,1
29.064354181289673,34,35,56,324,60,34,38,36,1
29.086286783218384,35,36,55,307,56,35,38,36,1
29.10986018180847,37,39,54,317,52,33,32,35,1
29.132877111434937,36,41,58,307,50,33,32,34,1
29.146632432937622,32,39,53,224,45,27,28,32,1
29.169920682907104,33,38,53,231,50,28,31,30,1
29.192922592163086,33,39,55,235,58,32,32,31,1
29.20689630508423,31,34,54,241,61,32,33,32,1
29.229780912399292,33,31,42,197,58,32,32,32,1
29.253310918807983,36,34,48,202,58,34,35,27,1
29.266626834869385,33,38,50,261,57,34,33,28,1
29.291722774505615,34,35,55,341,56,33,40,30,1
29.31255078315735,35,39,59,334,68,42,50,30,1
29.326603174209595,36,41,59,338,69,42,50,34,1
29.36448621749878,35,46,53,347,73,48,51,34,1
29.378819704055786,38,46,58,303,73,50,56,39,1
29.39369773864746,39,49,55,198,70,48,50,44,1
29.411399841308594,45,47,56,197,56,43,42,50,1
29.43186330795288,44,52,66,218,63,55,52,50,1
29.446756601333618,47,58,71,310,61,56,57,60,1
29.47732424736023,51,54,66,302,58,54,52,71,1
29.491734743118286,61,52,63,306,57,55,52,84,1
29.50670075416565,73,53,57,320,57,55,57,101,1
29.529117584228516,94,52,46,308,53,46,52,117,1
29.55276870727539,103,41,37,215,53,41,43,123,1
29.566921949386597,125,43,55,311,62,47,53,135,1
29.58951997756958,136,44,58,305,65,47,56,131,1
29.61178231239319,136,41,60,358,66,47,52,118,1
29.626630306243896,124,34,66,359,66,43,51,103,1
29.64900040626526,116,34,68,369,64,41,49,89,1
29.671990633010864,91,40,53,292,56,33,40,58,1
29.68625521659851,63,39,50,322,53,31,38,43,1
29.70859122276306,44,43,48,243,55,28,34,41,1
29.732033729553223,42,42,43,229,56,28,33,39,1
29.746962785720825,43,42,39,218,56,30,35,39,1
29.769542932510376,39,35,39,215,52,31,32,40,1
29.79173970222473,41,39,40,163,57,36,35,37,1
29.806703805923462,41,38,39,155,57,40,39,37,1
29.829164743423462,36,39,36,229,53,40,39,36,1
29.85159134864807,38,44,37,204,57,42,39,40,1
29.86671757698059,38,45,40,238,61,42,41,38,1
29.88913631439209,41,43,38,244,59,40,37,40,1
29.9116108417511,43,41,37,252,60,35,34,41,1
29.926554679870605,42,40,37,211,59,35,33,37,1
29.949339389801025,40,42,44,224,59,37,40,42,1
29.97190809249878,48,44,48,211,56,38,42,43,1
29.986788511276245,48,54,48,216,64,44,44,58,1
30.00922179222107,58,55,54,231,64,46,47,79,1
30.031653881072998,67,58,54,223,65,45,46,92,1
30.054540872573853,81,62,47,212,62,43,43,111,1
30.06930446624756,82,62,41,214,63,42,42,113,1
30.09163546562195,95,52,42,245,55,35,38,106,1
30.114479064941406,88,51,35,233,48,34,32,93,1
30.128963470458984,85,48,38,220,51,35,38,86,1
30.151636838912964,82,37,38,236,46,33,36,68,1
30.17436933517456,85,32,39,265,49,37,37,74,1
30.189202308654785,87,34,42,234,50,37,39,92,1
30.211724519729614,95,38,48,237,52,35,43,96,1
30.23423147201538,100,38,58,304,62,33,40,102,1
30.24925184249878,97,36,59,322,62,31,38,99,1
30.271864652633667,92,41,64,290,63,35,46,96,1
30.294363737106323,82,39,66,335,60,34,47,85,1
30.309064865112305,75,38,64,345,62,38,49,80,1
30.353341579437256,69,38,57,315,60,41,54,67,1
30.35576319694519,61,44,59,296,60,44,56,62,1
30.36925435066223,59,43,58,313,64,43,52,61,1
30.39241123199463,52,42,53,265,65,45,50,53,1
30.414955377578735,49,42,53,269,65,43,47,50,1
30.429210424423218,40,40,50,244,56,41,40,47,1
30.452579975128174,42,36,58,252,59,47,43,49,1
30.474855661392212,41,33,56,250,50,44,40,41,1
30.48928213119507,39,34,56,249,55,43,42,41,1
30.512329578399658,41,34,57,277,50,43,42,49,1
30.53482937812805,55,38,60,291,48,44,43,68,1
30.54915142059326,69,35,52,285,47,33,38,76,1
30.57244634628296,77,33,53,277,50,31,38,87,1
30.594869375228882,93,33,60,297,54,30,37,97,1
30.609499216079712,100,33,62,280,53,27,39,100,1
30.63469433784485,99,29,58,274,54,24,40,92,1
30.655293941497803,91,32,53,267,57,28,41,86,1
30.669241428375244,90,36,50,263,58,34,45,80,1
30.69239568710327,78,36,47,304,50,34,46,72,1
30.715463399887085,69,40,48,269,51,33,42,64,1
30.72884702682495,60,39,50,254,56,36,43,57,1
30.75238823890686,58,37,52,283,53,36,41,51,1
30.774826288223267,48,34,58,310,52,29,36,42,1
30.789421319961548,43,38,52,252,56,31,37,35,1
30.812585830688477,40,33,49,256,60,30,37,34,1
30.834888696670532,40,33,49,290,57,28,32,37,1
30.84933590888977,38,36,47,277,54,25,31,37,1
30.872385263442993,39,44,48,237,68,36,43,43,1
30.894840002059937,41,44,54,288,73,39,48,45,1
30.909066915512085,41,45,53,311,69,39,48,45,1
30.932231903076172,43,46,54,292,73,41,51,44,1
30.95526361465454,45,44,61,310,84,45,54,45,1
30.969491958618164,43,37,52,364,71,38,44,39,1
30.992433547973633,39,34,47,324,62,36,35,35,1
31.015970706939697,40,34,49,295,63,37,36,37,1
31.037906169891357,39,35,48,296,58,37,37,38,1
31.052887201309204,36,36,45,258,40,33,32,37,1
31.07478642463684,38,35,52,172,43,34,33,38,1
31.097845554351807,35,33,52,159,43,29,32,36,1
31.11231017112732,39,36,51,176,43,30,34,34,1
31.134777069091797,46,36,51,271,51,27,31,36,1
31.157201290130615,47,34,54,270,57,28,32,37,1
31.171934366226196,46,34,50,271,56,27,31,35,1
31.202893257141113,47,35,49,300,58,34,34,36,1
31.217456102371216,45,32,55,322,61,33,34,39,1
31.232501745224,44,35,55,249,55,34,35,39,1
31.254879236221313,41,36,46,249,49,37,37,37,1
31.27728819847107,44,43,52,245,55,43,46,44,1
31.291669845581055,44,43,54,254,54,40,44,44,1
31.3148410320282,42,45,45,218,53,41,44,43,1
31.33777618408203,38,50,49,200,64,46,48,41,1
31.35118532180786,38,52,51,261,69,45,47,41,1
31.37485647201538,40,51,65,311,72,44,40,39,1
31.398080587387085,44,57,72,303,86,54,48,43,1
31.411972522735596,42,58,71,302,86,57,48,42,1
31.434850454330444,42,58,72,305,80,55,47,42,1
31.457316160202026,46,56,77,298,86,57,48,42,1
31.471714735031128,39,53,62,282,82,54,47,38,1
31.494908094406128,37,45,58,276,67,44,40,36,1
31.517849683761597,37,41,62,296,65,39,36,37,1
31.53159475326538,35,32,58,299,69,38,32,38,1
31.554866313934326,32,35,54,276,60,34,33,35,1
31.577564001083374,36,34,53,290,55,32,31,35,1
31.592594146728516,32,33,50,269,54,31,30,32,1
31.615280389785767,35,42,56,261,79,44,46,35,1
31.637972831726074,34,43,57,276,74,42,46,32,1
31.65169620513916,37,41,54,274,75,42,50,35,1
31.674898386001587,38,42,54,238,81,45,54,43,1
31.6975417137146,39,42,53,248,81,45,54,44,1
31.711641788482666,38,34,48,252,61,32,42,40,1
31.735188245773315,43,34,46,227,61,32,41,43,1
31.75766897201538,41,34,48,220,58,35,40,40,1
31.771668672561646,38,32,44,220,55,38,34,31,1
31.795347929000854,36,34,42,220,52,38,35,32,1
31.81747841835022,35,33,35,214,50,38,35,31,1
31.83172059059143,32,28,34,215,48,39,37,28,1
31.854902029037476,31,29,31,252,54,36,35,29,1
31.877503871917725,30,31,36,237,58,34,35,32,1
31.891692876815796,32,32,36,240,64,37,35,32,1
31.914846420288086,31,32,46,238,62,39,38,34,1
31.937798500061035,31,36,51,243,65,43,41,37,1
31.959722995758057,31,34,49,247,62,41,37,37,1
31.975194215774536,35,32,53,255,56,39,37,40,1
31.99682331085205,35,32,54,242,52,37,38,41,1
32.020732402801514,40,34,51,235,52,35,37,40,1
32.03481674194336,39,32,46,249,50,28,33,40,1
32.05743646621704,40,32,47,231,46,28,35,38,1
32.079851388931274,37,31,42,242,43,26,32,33,1
32.09480166435242,39,30,40,243,39,30,34,31,1
32.11738038063049,33,30,36,238,38,30,33,31,1
32.139951944351196,35,29,41,261,45,32,31,29,1
32.15487504005432,34,31,40,247,46,33,31,29,1
32.177786111831665,36,36,42,226,48,36,34,31,1
32.1999249458313,33,45,45,241,50,41,40,34,1
32.21416616439819,34,43,48,284,56,40,38,34,1
32.23751997947693,33,43,47,263,59,39,38,35,1
32.259939193725586,32,42,48,271,61,40,38,34,1
32.274845600128174,33,47,52,291,68,45,43,32,1
32.297696113586426,31,37,53,281,68,42,36,30,1
32.320127964019775,32,38,51,235,66,43,39,30,1
32.33423471450806,30,39,49,210,59,42,40,30,1
32.357457876205444,35,40,49,191,65,41,41,35,1
32.38004159927368,33,33,48,190,56,33,38,36,1
32.39477562904358,32,35,42,177,58,29,36,37,1
32.41763615608215,31,35,43,197,56,28,33,37,1
32.44014596939087,34,38,42,241,54,34,36,39,1
32.45471477508545,32,40,44,231,46,36,35,36,1
32.47745633125305,32,37,43,238,45,35,32,36,1
32.50026035308838,36,38,55,256,56,37,35,37,1
32.51427674293518,41,39,54,257,57,40,40,37,1
32.53785943984985,39,36,54,273,59,34,36,37,1
32.559953927993774,42,34,54,291,67,35,38,38,1
32.57419991493225,44,37,49,261,68,36,39,36,1
32.59747576713562,41,35,38,249,55,34,36,36,1
32.619831562042236,40,34,38,243,56,35,36,35,1
32.63415741920471,38,33,36,181,54,37,40,34,1
32.657501459121704,34,31,33,162,45,33,34,29,1
32.68018126487732,32,30,35,169,42,33,38,31,1
32.6950945854187,33,30,40,158,43,32,42,29,1
32.717557430267334,31,31,39,212,44,29,40,31,1
32.74002647399902,31,33,44,233,42,26,37,32,1
32.7541937828064,31,33,46,235,46,27,39,33,1
32.77747058868408,30,30,46,239,46,26,35,31,1
32.79987406730652,31,39,46,251,51,32,38,36,1
32.82170343399048,32,43,49,199,50,33,37,34,1
32.83843970298767,31,42,45,192,51,36,39,33,1
32.859604597091675,30,41,46,183,52,36,39,34,1
32.88185715675354,34,42,45,266,53,37,40,38,1
32.89889311790466,32,35,44,260,51,32,34,35,1
32.920689821243286,31,32,39,269,53,34,34,33,1
32.941739320755005,30,38,45,281,57,33,39,32,1
32.95856070518494,33,43,44,286,58,35,42,31,1
32.97948884963989,29,43,44,232,55,35,40,28,1
33.002639055252075,31,42,40,228,52,32,39,26,1
33.01866030693054,36,43,41,238,46,36,42,30,1
33.03972244262695,36,38,34,212,45,33,35,31,1
33.06983518600464,35,36,31,216,45,32,33,32,1
33.07981896400452,35,40,34,198,47,35,37,31,1
33.099162340164185,32,39,31,199,49,39,40,33,1
33.12198066711426,29,35,33,212,54,32,35,30,1
33.13783288002014,38,38,42,260,60,37,40,34,1
33.15864419937134,40,37,41,250,60,39,43,32,1
33.18120265007019,40,31,39,249,60,37,40,34,1
33.199047803878784,42,33,43,291,64,35,37,33,1
33.219200134277344,40,32,48,270,66,35,40,37,1
33.24174642562866,37,27,46,227,64,31,37,36,1
33.25931692123413,35,25,48,217,60,28,33,38,1
33.27915096282959,40,26,54,258,68,30,39,39,1
33.30188274383545,40,25,52,218,66,31,40,39,1
33.319483041763306,40,26,46,230,62,33,39,35,1
33.33926510810852,39,27,45,243,56,33,39,35,1
33.36168050765991,37,32,47,308,61,35,43,35,1
33.378338098526,33,32,45,290,52,32,39,32,1
33.39926791191101,32,32,46,286,49,31,38,35,1
33.42165017127991,34,46,54,272,50,32,45,37,1
33.439414262771606,33,47,57,323,52,32,44,37,1
33.4594943523407,34,44,55,285,51,33,42,34,1
33.482359647750854,38,48,58,263,68,38,47,36,1
33.49852228164673,37,48,56,261,67,37,46,33,1
33.51888060569763,37,37,52,272,70,36,37,34,1
33.54141306877136,38,36,56,273,73,35,39,34,1
33.56512403488159,39,37,54,278,68,33,38,36,1
33.57870936393738,37,31,50,319,53,26,31,35,1
33.60165524482727,41,38,51,329,57,31,42,36,1
33.61841297149658,40,36,53,394,53,32,43,35,1
33.63913083076477,40,47,46,343,52,32,45,35,1
33.66203761100769,42,61,59,332,65,41,54,42,1
33.67771911621094,42,66,62,349,65,44,55,45,1
33.699721574783325,39,62,61,339,59,42,47,45,1
33.7217755317688,42,68,58,263,62,41,50,44,1
33.738523721694946,45,66,55,285,57,43,47,44,1
33.75922203063965,43,51,45,287,45,34,36,38,1
33.781808853149414,41,48,41,227,50,37,37,35,1
33.79932451248169,42,49,43,275,53,37,38,35,1
33.81904935836792,39,39,41,277,47,37,34,36,1
33.842291831970215,35,30,40,288,50,34,35,33,1
33.864176750183105,37,33,40,306,52,36,39,32,1
33.88038754463196,37,32,42,311,47,30,37,30,1
33.90174460411072,35,33,38,274,45,32,37,30,1
33.92440342903137,35,36,39,256,44,33,36,29,1
33.93925452232361,38,40,48,279,42,33,35,32,1
33.96181893348694,35,42,46,267,39,35,32,30,1
33.984686613082886,35,39,42,250,43,37,31,29,1
34.00111365318298,32,45,44,293,47,37,32,27,1
34.021942377090454,32,43,48,308,49,38,34,30,1
34.04425263404846,26,39,39,260,49,39,33,27,1
34.059311389923096,24,39,37,256,48,38,32,27,1
34.08177661895752,25,43,46,299,47,40,38,30,1
34.10446572303772,25,37,46,269,44,39,38,31,1
34.1193151473999,32,36,46,369,47,39,39,31,1
34.14172863960266,35,34,51,370,51,38,39,34,1
34.16421055793762,37,34,58,381,52,35,38,35,1
34.18100833892822,38,30,52,354,51,30,32,36,1
34.20152926445007,44,32,54,364,51,31,32,36,1
34.22429037094116,41,33,54,289,47,28,32,35,1
34.23909854888916,41,36,52,294,44,28,30,35,1
34.26192331314087,43,34,48,319,47,27,28,36,1
34.28451633453369,43,34,50,310,50,31,31,34,1
34.299262046813965,40,32,47,302,52,32,31,34,1
34.32229971885681,39,33,45,318,54,34,31,31,1
34.344229221343994,38,31,44,310,57,33,31,29,1
34.35925602912903,32,32,41,266,56,35,35,30,1
34.38186740875244,34,33,41,295,57,34,32,30,1
34.404128313064575,34,38,41,277,59,34,35,28,1
34.419106245040894,33,36,39,213,56,32,34,28,1
34.441752433776855,33,38,37,230,50,34,34,31,1
34.46419095993042,37,36,46,248,47,36,33,36,1
34.47929334640503,36,35,49,224,43,34,34,37,1
34.50189828872681,36,29,51,224,37,28,31,39,1
34.52438449859619,38,29,49,248,36,27,29,39,1
34.53925156593323,45,30,53,298,45,26,32,41,1
34.56190299987793,42,30,51,278,54,24,35,35,1
34.58435368537903,41,30,47,314,54,26,31,33,1
34.60106348991394,41,31,47,343,56,30,34,32,1
34.62208437919617,41,33,56,327,56,32,36,33,1
34.64424753189087,38,32,55,266,52,33,34,32,1
34.662015438079834,34,34,51,278,54,37,34,32,1
34.68172883987427,36,35,52,265,58,37,37,36,1
34.70437145233154,32,45,52,236,59,41,36,36,1
34.72138690948486,32,45,45,235,58,40,35,36,1
34.741883754730225,29,49,47,239,59,46,38,37,1
34.764615297317505,34,46,46,206,51,42,36,36,1
34.78109860420227,38,51,49,161,45,44,38,35,1
34.80184841156006,40,44,44,154,40,40,37,34,1
34.824602127075195,39,44,47,166,38,40,37,35,1
34.84709620475769,37,41,43,176,45,38,35,32,1
34.86176514625549,35,46,42,191,47,38,37,32,1
34.88426685333252,28,39,41,198,49,35,33,32,1
34.90713286399841,27,37,41,193,48,33,33,31,1
34.92182207107544,31,37,44,189,53,33,32,31,1
34.944180488586426,32,37,43,181,49,29,33,33,1
34.96669149398804,33,30,47,183,54,28,33,36,1
34.98179292678833,34,38,44,183,56,32,35,35,1
35.00521636009216,37,39,49,206,62,32,36,37,1
35.026742458343506,35,38,50,195,62,33,37,35,1
35.041860818862915,35,40,53,192,68,36,40,32,1
35.0640983581543,34,41,51,192,65,35,37,29,1
35.086719036102295,32,34,54,199,63,30,35,31,1
35.10189414024353,35,35,52,214,65,32,34,29,1
35.125667572021484,34,34,48,218,63,31,32,32,1
35.146684885025024,34,30,45,223,53,24,25,34,1
35.16181802749634,34,31,43,224,53,29,25,37,1
35.18424201011658,34,33,39,211,51,33,27,36,1
35.20675301551819,28,32,33,192,43,34,31,39,1
35.22172784805298,31,30,29,263,44,35,33,36,1
35.244303703308105,30,31,29,255,46,37,38,34,1
35.26675820350647,31,30,31,258,43,34,40,30,1
35.28228998184204,33,32,31,270,43,32,39,32,1
35.30422043800354,35,34,32,265,43,35,38,29,1
35.32690620422363,31,38,31,255,42,34,36,31,1
35.34179329872131,31,39,34,261,45,36,30,33,1
35.36432385444641,30,38,31,252,43,36,28,33,1
35.387030601501465,29,34,33,263,45,37,30,31,1
35.40187478065491,39,33,44,308,44,36,29,33,1
35.424259424209595,41,31,48,260,46,40,33,33,1
35.44697451591492,44,30,46,257,40,38,33,32,1
35.461790323257446,45,30,49,259,45,42,37,33,1
35.484474182128906,45,33,46,256,43,43,41,32,1
35.506749629974365,35,32,42,206,45,41,39,33,1
35.522194385528564,34,29,40,210,41,39,37,35,1
35.544405460357666,33,30,49,273,50,40,39,40,1
35.566983222961426,30,33,47,294,48,40,34,43,1
35.58202624320984,38,32,50,287,47,38,29,44,1
35.60465431213379,38,33,51,281,57,43,33,43,1
35.62691378593445,39,38,56,288,66,45,34,41,1
35.64207911491394,38,37,47,224,59,43,36,38,1
35.66421031951904,39,33,47,197,57,39,36,31,1
35.687551498413086,33,36,49,187,64,43,39,33,1
35.701730251312256,32,36,48,176,56,42,38,32,1
35.72441339492798,31,33,44,176,48,37,35,32,1
35.747172594070435,30,32,47,176,52,37,31,30,1
35.769373178482056,27,40,49,190,60,41,36,33,1
35.78429198265076,30,41,46,190,56,37,35,31,1
35.80690860748291,32,41,45,197,57,35,35,31,1
35.83009076118469,33,44,45,196,61,42,42,35,1
35.844460248947144,34,46,45,209,57,41,42,37,1
35.866894006729126,36,42,42,206,47,38,38,36,1
35.88930654525757,34,39,51,208,52,39,40,39,1
35.90458869934082,33,36,51,220,50,38,43,38,1
35.9269073009491,29,30,46,207,43,29,39,36,1
35.94995903968811,30,27,46,213,49,31,41,35,1
35.963842153549194,31,27,50,222,48,34,43,37,1
35.98624038696289,28,31,43,234,43,31,41,34,1
36.00951075553894,30,35,48,231,44,29,36,39,1
36.02484440803528,33,45,50,256,47,38,44,39,1
36.04667329788208,33,46,53,236,48,42,48,38,1
36.069162368774414,33,43,48,282,53,38,46,39,1
36.08413815498352,35,41,44,302,52,39,47,40,1
36.106807708740234,35,39,38,296,52,40,46,33,1
36.129279375076294,38,31,43,295,52,36,44,37,1
36.14382457733154,39,32,44,345,48,32,40,37,1
36.16710448265076,39,35,49,291,45,34,44,34,1
36.18899440765381,39,34,49,300,45,34,44,35,1
36.203996419906616,41,34,51,305,44,34,44,36,1
36.22676372528076,37,34,49,297,39,30,39,30,1
36.249284505844116,36,33,46,259,49,29,37,30,1
36.264244079589844,36,30,43,273,52,25,33,33,1
36.28699588775635,38,36,43,271,51,29,32,31,1
36.30921745300293,34,41,42,262,60,37,37,31,1
36.324326515197754,37,40,43,261,64,37,39,32,1
36.3467857837677,36,41,42,263,62,38,42,31,1
36.36927771568298,33,43,42,259,58,39,42,28,1
36.3843252658844,34,40,41,241,61,37,42,29,1
36.406935691833496,32,35,40,234,51,30,39,29,1
36.42932653427124,34,37,38,229,48,30,37,26,1
36.44458866119385,33,35,37,226,44,39,38,28,1
36.466954946517944,38,34,40,220,44,41,37,28,1
36.489776611328125,37,33,44,193,43,42,39,28,1
36.50416326522827,38,40,43,199,49,46,39,28,1
36.52719259262085,34,39,42,181,51,47,38,29,1
36.5497510433197,37,40,42,182,55,39,32,32,1
36.564231872558594,33,46,42,189,56,40,37,32,1
36.586785078048706,31,45,43,197,58,40,37,34,1
36.60935139656067,31,43,45,282,62,37,35,33,1
36.62486171722412,33,41,44,301,70,39,41,33,1
36.64676904678345,30,39,43,298,65,38,41,29,1
36.669416189193726,31,32,46,307,63,34,39,29,1
36.6918408870697,31,35,43,318,64,34,38,27,1
36.70678782463074,35,33,45,247,57,33,39,30,1
36.72978067398071,33,40,48,220,43,34,37,31,1
36.751710176467896,34,46,51,225,50,36,37,34,1
36.76682257652283,32,48,47,202,49,39,40,33,1
36.789302110672,32,47,47,209,49,36,36,32,1
36.81141471862793,30,50,42,211,65,43,41,30,1
36.82646703720093,32,45,40,210,64,39,39,30,1
36.84936738014221,33,38,36,198,58,36,41,28,1
36.873372077941895,35,44,42,243,63,41,46,32,1
36.88678026199341,34,43,42,214,63,41,48,33,1
36.90891623497009,37,38,52,224,56,34,45,34,1
36.93226408958435,36,42,50,235,58,35,45,35,1
36.94667887687683,35,44,55,230,62,38,43,35,1
36.96955990791321,35,37,50,208,57,32,34,32,1
36.991894245147705,37,37,48,240,55,32,34,34,1
37.00634980201721,35,39,39,292,54,29,31,37,1
37.02936410903931,36,36,43,309,58,31,28,35,1
37.051795959472656,36,37,42,317,55,30,32,35,1
37.06674885749817,38,31,42,311,58,30,34,39,1
37.08969974517822,40,34,46,314,61,32,37,40,1
37.11177325248718,38,29,46,264,58,34,38,35,1
37.127055168151855,36,32,42,240,54,33,38,37,1
37.1491801738739,38,32,41,236,53,30,36,39,1
37.17217707633972,35,37,42,240,50,32,37,37,1
37.1872353553772,31,36,39,201,43,30,35,35,1
37.20949077606201,37,41,36,207,34,28,32,35,1
37.231953620910645,42,38,41,252,36,31,34,35,1
37.24690914154053,40,39,36,246,32,32,32,30,1
37.269288063049316,41,37,40,235,30,33,29,30,1
37.29191207885742,41,42,41,247,39,34,26,30,1
37.306984186172485,35,37,42,233,44,35,25,30,1
37.329304695129395,30,39,38,198,44,35,31,29,1
37.3520245552063,30,37,45,217,48,34,33,31,1
37.36711931228638,29,39,45,236,50,30,33,29,1
37.38902187347412,28,36,46,244,49,29,33,28,1
37.411829471588135,29,35,49,250,45,27,35,28,1
37.426809549331665,28,40,51,234,48,26,30,26,1
37.449405670166016,28,42,46,223,53,29,33,25,1
37.47394347190857,28,44,45,207,57,34,35,25,1
37.48679065704346,28,42,42,183,54,35,35,27,1
37.50974941253662,30,45,41,193,60,39,38,30,1
37.53176307678223,30,40,38,200,57,38,35,34,1
37.546706438064575,31,40,42,220,54,36,34,36,1
37.56924223899841,33,35,39,245,51,31,31,36,1
37.592864751815796,34,38,48,252,59,34,37,36,1
37.60707426071167,32,39,48,275,61,32,34,35,1
37.62941551208496,35,37,56,301,67,31,37,36,1
37.651795864105225,33,37,53,277,67,36,36,34,1
37.675429582595825,33,37,55,303,71,38,40,38,1
37.68965744972229,32,36,46,310,65,35,36,37,1
37.71227169036865,33,30,51,336,58,34,38,41,1
37.73500680923462,32,32,51,320,59,36,38,39,1
37.74994516372681,33,35,49,322,56,32,41,41,1
37.771769285202026,31,35,48,276,50,32,40,38,1
37.79517483711243,36,33,54,273,48,33,39,41,1
37.8097939491272,34,33,49,215,50,36,37,39,1
37.83226037025452,31,34,43,225,47,35,38,38,1
37.855424642562866,31,31,46,221,49,35,37,37,1
37.869425535202026,29,34,46,214,52,35,32,36,1
37.89199137687683,24,36,46,187,63,33,32,31,1
37.915313482284546,24,38,45,171,69,33,35,27,1
37.92936611175537,28,36,42,192,70,35,34,26,1
37.95182967185974,29,44,50,197,75,40,46,28,1
37.97521138191223,34,41,54,215,74,39,48,31,1
37.989365339279175,37,39,51,224,65,40,47,33,1
38.01192760467529,38,37,52,252,57,39,45,36,1
38.03522300720215,39,39,54,226,61,42,48,35,1
38.04926681518555,40,29,44,227,52,37,36,33,1
38.071481227874756,39,28,41,253,53,38,34,32,1
38.09460711479187,37,31,37,244,57,38,35,31,1
38.10941553115845,40,37,35,216,57,37,40,29,1
38.13199281692505,37,37,37,206,51,33,36,32,1
38.154996156692505,37,38,42,220,62,33,35,33,1
38.16940760612488,41,41,46,215,60,34,37,33,1
38.19190430641174,41,39,52,226,56,32,35,34,1
38.21500253677368,40,38,51,251,56,35,31,33,1
38.23002767562866,40,37,49,298,62,35,31,33,1
38.252466678619385,41,35,45,298,51,34,32,36,1
38.27565360069275,38,32,40,291,51,31,30,35,1
38.28945755958557,39,36,39,282,60,34,32,38,1
38.31185579299927,37,36,41,279,60,31,33,37,1
38.33519387245178,39,35,42,244,54,28,32,36,1
38.34931468963623,37,34,43,268,54,26,33,36,1
38.371854305267334,33,40,53,270,75,39,44,43,1
38.396549224853516,32,37,53,307,73,38,43,42,1
38.40998291969299,29,34,54,298,76,40,46,46,1
38.433494091033936,27,35,52,293,79,42,51,48,1
38.45522713661194,31,36,53,270,79,43,51,46,1
38.471014976501465,33,36,46,239,58,35,41,38,1
38.49225902557373,34,40,41,224,52,33,41,35,1
38.515122413635254,38,45,40,210,49,38,44,32,1
38.5293447971344,38,45,44,189,44,38,40,28,1
38.55202555656433,38,46,42,198,46,37,40,31,1
38.575058460235596,38,40,38,200,48,38,40,32,1
38.59771490097046,37,38,38,229,54,39,41,39,1
38.61187481880188,33,33,36,227,49,32,32,37,1
38.63500475883484,34,32,36,266,53,32,30,39,1
38.65791845321655,38,31,42,260,67,34,29,41,1
38.6714563369751,36,33,42,266,64,32,33,39,1
38.6946964263916,37,32,45,236,63,33,35,35,1
38.71793246269226,38,33,60,295,76,37,39,37,1
38.732738971710205,39,34,60,265,73,37,37,36,1
38.75508451461792,31,34,57,272,61,34,38,34,1
38.77728581428528,31,33,60,281,61,34,34,34,1
38.79184007644653,28,34,59,268,61,35,31,32,1
38.81525421142578,26,32,46,193,49,33,30,30,1
38.83758592605591,31,33,45,279,50,31,35,31,1
38.85282897949219,31,43,42,274,52,36,38,34,1
38.87464761734009,35,43,40,304,53,35,38,35,1
38.89776945114136,37,44,40,301,51,36,42,36,1
38.911869049072266,37,46,38,306,48,35,40,36,1
38.93542408943176,35,45,35,245,51,35,36,33,1
38.95790648460388,39,35,44,280,49,30,33,33,1
38.97195363044739,40,43,47,256,60,37,38,31,1
38.99431896209717,40,42,47,280,66,35,33,32,1
39.017194986343384,40,43,50,274,66,40,39,35,1
39.03193926811218,41,42,60,293,69,42,39,37,1
39.054855823516846,39,44,55,266,68,43,39,35,1
39.07799315452576,38,38,52,245,60,41,36,33,1
39.091487646102905,42,37,53,236,56,42,37,33,1
39.114678144454956,43,35,52,261,58,38,31,30,1
39.13770842552185,38,35,42,228,51,37,32,30,1
39.15187954902649,39,37,42,217,53,40,39,30,1
39.17447066307068,36,35,42,226,56,38,40,31,1
39.19768977165222,31,33,37,235,55,36,40,28,1
39.21183681488037,35,35,37,225,55,34,40,31,1
39.234618186950684,36,39,45,232,57,37,40,31,1
39.257691860198975,37,36,48,258,53,33,34,33,1
39.27287936210632,38,37,55,288,57,41,43,34,1
39.29452586174011,38,41,57,280,58,42,41,35,1
39.3173131942749,33,37,56,298,53,41,41,36,1
39.33128356933594,32,37,52,336,51,40,42,35,1
39.354531049728394,29,34,48,340,51,38,43,34,1
39.37761902809143,33,31,40,318,42,29,35,33,1
39.39186334609985,32,28,42,301,41,30,37,33,1
39.41437745094299,34,31,57,277,48,32,40,33,1
39.43788194656372,38,29,56,221,48,31,40,30,1
39.45194721221924,38,33,56,178,48,34,39,32,1
39.474687814712524,35,34,55,177,44,34,37,34,1
39.50516152381897,39,34,57,228,55,36,42,34,1
39.51192498207092,37,30,45,268,51,34,37,33,1
39.53441786766052,38,29,44,289,53,34,37,35,1
39.55778670310974,40,28,47,312,56,34,37,33,1
39.580239057540894,45,27,48,326,57,33,36,30,1
39.59436511993408,42,32,42,299,43,29,32,29,1
39.61758899688721,43,32,38,257,44,31,35,29,1
39.64005184173584,38,38,36,244,41,30,36,28,1
39.654378175735474,39,38,33,196,38,29,34,28,1
39.67826986312866,36,39,30,154,39,30,34,27,1
39.69979667663574,36,34,34,228,41,29,35,28,1
39.71443271636963,36,35,40,241,40,29,32,29,1
39.74533224105835,37,32,43,241,44,28,31,28,1
39.76020908355713,36,31,43,285,43,28,31,28,1
39.7745201587677,35,34,44,315,44,30,30,28,1
39.797643423080444,35,36,44,264,50,30,28,30,1
39.82025742530823,34,39,40,263,56,31,32,31,1
39.8344349861145,38,45,40,285,60,33,32,32,1
39.857799768447876,38,45,43,260,62,35,36,33,1
39.8801794052124,34,44,44,256,65,34,40,34,1
39.89480781555176,37,44,43,250,60,34,40,33,1
39.9176881313324,37,44,43,254,54,31,37,30,1
39.939821004867554,34,35,41,230,44,28,33,28,1
39.95382523536682,34,36,39,247,53,28,32,32,1
39.97756576538086,36,41,41,224,52,32,39,32,1
40.00014138221741,33,38,41,226,54,34,39,33,1
40.01442265510559,36,37,38,205,59,36,41,34,1
40.03763723373413,37,41,41,294,66,38,42,39,1
40.06022381782532,38,42,43,271,58,36,42,38,1
40.07492160797119,38,35,38,264,54,31,33,36,1
40.097766637802124,41,40,39,282,55,31,35,38,1
40.120307207107544,40,39,39,287,51,30,38,38,1
40.13445043563843,38,37,38,190,49,31,39,34,1
40.1577570438385,35,33,40,199,49,32,38,34,1
40.18011999130249,34,32,41,192,55,34,43,36,1
40.19457173347473,29,28,38,168,52,34,42,35,1
40.21749997138977,29,28,42,178,50,33,39,35,1
40.24008750915527,28,35,42,181,47,37,45,34,1
40.25462317466736,27,37,38,162,48,37,46,31,1
40.27776527404785,29,37,42,196,44,35,44,31,1
40.30141353607178,33,43,60,211,50,36,46,33,1
40.3144097328186,34,44,58,224,50,35,46,35,1
40.33802366256714,33,37,55,211,45,29,37,35,1
40.36068248748779,35,39,56,213,44,32,38,36,1
40.37481427192688,35,42,54,248,44,31,38,35,1
40.397552490234375,33,37,33,245,40,31,39,30,1
40.420287132263184,32,34,28,228,39,30,38,29,1
40.434475898742676,35,37,30,243,47,31,41,30,1
40.45747756958008,34,39,29,241,51,27,39,31,1
40.48011875152588,32,42,32,176,51,32,42,34,1
40.50241827964783,32,43,32,221,56,35,39,36,1
40.51784420013428,31,42,38,217,58,40,42,37,1
40.54051446914673,27,40,38,197,55,38,38,40,1
40.56268072128296,29,40,41,225,52,43,43,39,1
40.57760667800903,30,33,37,237,54,38,37,36,1
40.601404905319214,33,32,39,207,56,37,35,36,1
40.62301063537598,35,33,36,216,55,35,34,36,1
40.63832449913025,37,33,39,266,58,39,38,31,1
40.66005992889404,37,28,38,256,57,35,32,31,1
40.682523012161255,38,31,41,272,53,35,34,32,1
40.69773554801941,38,36,46,261,56,34,40,32,1
40.72018599510193,36,37,45,290,55,32,38,30,1
40.74280548095703,35,39,43,257,50,32,36,31,1
40.7577645778656,42,36,46,243,49,30,35,32,1
40.78051400184631,43,47,51,234,57,36,40,34,1
40.80275583267212,44,50,46,237,53,40,39,34,1
40.817617893218994,45,49,48,186,53,40,38,34,1
40.840089321136475,45,48,50,226,56,41,39,34,1
40.86277103424072,38,51,50,277,58,43,39,32,1
40.87708902359009,35,44,48,256,58,41,39,34,1
40.900641679763794,31,39,50,252,59,40,40,38,1
40.92286276817322,31,41,50,252,59,41,40,36,1
40.937647104263306,32,40,51,289,56,40,42,37,1
40.96014165878296,34,39,48,261,59,40,43,38,1
40.9830162525177,36,34,47,268,52,39,38,34,1
40.99697685241699,38,38,46,267,45,36,35,30,1
41.02038931846619,36,38,43,280,43,36,35,32,1
41.04291105270386,37,37,37,212,43,32,31,32,1
41.05696702003479,34,39,38,230,44,33,32,31,1
41.07968282699585,33,39,33,237,46,31,30,31,1
41.102794885635376,32,37,31,230,51,34,29,30,1
41.11698627471924,37,41,41,239,63,35,35,32,1
41.13965153694153,34,41,44,228,64,36,38,29,1
41.16299486160278,37,43,49,215,59,35,41,34,1
41.176992654800415,35,47,55,252,61,36,44,36,1
41.2001588344574,34,43,55,247,59,34,44,35,1
41.22274303436279,30,39,48,224,46,30,38,34,1
41.23685145378113,31,41,59,279,55,32,40,36,1
41.26017117500305,34,37,55,272,54,29,35,33,1
41.282772064208984,36,32,50,224,50,27,32,30,1
41.29696822166443,36,31,54,260,50,26,33,31,1
41.32030940055847,39,29,59,298,53,28,35,31,1
41.34313917160034,39,30,49,246,42,24,31,31,1
41.35722589492798,35,30,46,236,45,26,32,33,1
41.38015604019165,37,31,47,233,43,30,33,32,1
41.403971433639526,50,47,57,269,43,37,43,36,1
41.42525362968445,51,55,54,244,40,44,47,36,1
41.43980407714844,54,52,51,245,42,43,46,36,1
41.46279788017273,56,52,58,240,42,43,45,36,1
41.48513221740723,53,51,58,258,43,41,46,38,1
41.50008988380432,45,37,47,233,42,35,38,35,1
41.52274298667908,43,26,47,232,46,27,32,35,1
41.54552412033081,39,26,46,229,43,27,34,33,1
41.5602970123291,39,28,45,256,46,28,39,39,1
41.58272457122803,41,34,46,244,53,30,39,41,1
41.60521650314331,37,34,45,201,58,34,39,40,1
41.62014389038086,34,35,40,187,57,33,38,41,1
41.642728090286255,38,39,49,237,68,38,41,46,1
41.672627687454224,37,40,44,235,70,39,37,40,1
41.67999267578125,36,37,45,256,65,38,37,40,1
41.702584981918335,37,37,47,257,62,35,35,42,1
41.72512245178223,40,38,51,260,64,37,39,43,1
41.74103832244873,41,37,50,350,64,35,34,43,1
41.762935161590576,42,36,48,339,59,33,33,43,1
41.78491497039795,42,33,44,321,57,31,31,39,1
41.7990345954895,42,38,44,334,56,31,35,37,1
41.82311201095581,44,39,44,331,51,27,30,35,1
41.845380783081055,39,42,37,206,38,25,31,31,1
41.85942244529724,39,43,50,210,38,26,34,32,1
41.882702589035034,42,44,52,226,44,31,36,33,1
41.90457582473755,42,41,57,291,43,31,30,38,1
41.919788122177124,37,39,56,295,46,33,31,38,1
41.942790508270264,40,37,61,287,54,36,39,41,1
41.965476751327515,37,35,52,294,55,38,42,39,1
41.98044037818909,35,35,53,327,56,40,44,40,1
42.00291848182678,35,33,49,268,56,40,45,38,1
42.02547597885132,35,36,51,269,56,44,49,36,1
42.03999328613281,33,35,47,271,48,43,45,35,1
42.062134742736816,35,36,48,264,47,42,43,35,1
42.085541009902954,39,42,45,227,42,42,44,39,1
42.099520683288574,38,43,43,240,51,45,44,39,1
42.12257790565491,38,44,38,245,49,44,41,41,1
42.14556407928467,39,40,43,245,53,42,39,40,1
42.16760730743408,38,44,42,226,56,45,39,40,1
42.182676553726196,36,41,51,323,70,46,42,37,1
42.2051944732666,34,40,50,307,62,43,41,34,1
42.21983075141907,37,38,54,307,64,43,39,32,1
42.242629528045654,37,41,51,306,62,43,39,32,1
42.26507353782654,36,38,52,306,61,41,39,33,1
42.279417991638184,35,35,46,213,45,34,29,29,1
42.30255937576294,37,35,52,253,54,35,30,30,1
42.327170610427856,36,32,48,235,53,34,31,31,1
42.33962941169739,34,29,47,229,54,33,31,30,1
42.362767457962036,39,32,48,231,54,33,29,29,1
42.38541889190674,43,31,44,204,54,35,32,33,1
42.40822172164917,43,33,40,158,48,33,34,33,1
42.422555446624756,42,33,43,177,50,32,37,34,1
42.44632625579834,43,36,43,166,54,35,40,32,1
42.46803021430969,39,32,39,170,52,37,41,33,1
42.48350644111633,35,34,41,241,55,35,39,34,1
42.5051691532135,37,34,38,229,56,41,42,36,1
42.5278046131134,36,35,35,224,53,43,40,39,1
42.54265737533569,34,36,38,248,50,43,40,38,1
42.56516647338867,37,35,41,246,51,42,41,39,1
42.58772301673889,37,35,42,185,53,45,44,40,1
42.60371136665344,34,34,43,212,54,41,40,39,1
42.62479281425476,36,38,53,266,76,43,45,36,1
42.647170305252075,35,33,51,275,73,40,43,36,1
42.66374349594116,34,36,50,313,75,39,44,35,1
42.68491578102112,33,37,47,304,76,37,41,30,1
42.706828355789185,34,37,46,288,77,36,44,28,1
42.7236909866333,32,32,33,265,56,30,37,26,1
42.74441123008728,32,32,34,261,62,32,36,28,1
42.766969203948975,30,29,37,225,61,30,31,27,1
42.7841854095459,28,30,35,233,53,31,31,27,1
42.804595708847046,26,35,40,233,53,32,28,27,1
42.827043771743774,29,36,43,231,56,31,28,28,1
42.843934059143066,34,41,42,217,53,32,29,27,1
42.86477994918823,37,44,38,203,57,33,33,27,1
42.88696098327637,37,44,42,213,58,35,35,29,1
42.903616428375244,38,44,41,214,55,36,39,31,1
42.92449998855591,38,45,40,189,48,36,38,32,1
42.94759941101074,34,43,44,202,44,37,39,31,1
42.963969230651855,39,43,49,222,42,40,38,35,1
42.98638892173767,38,44,47,207,48,41,38,34,1
43.0071918964386,38,42,46,208,53,38,34,34,1
43.02509069442749,40,41,44,219,60,39,37,32,1
43.0464870929718,39,40,47,205,65,40,41,33,1
43.06700944900513,34,35,41,198,64,37,38,33,1
43.084168910980225,36,32,44,202,60,35,37,35,1
43.106241941452026,37,30,43,199,59,36,40,36,1
43.12694478034973,39,31,45,250,57,35,38,38,1
43.144420862197876,38,27,38,269,52,31,32,36,1
43.16677474975586,40,33,44,269,59,34,44,37,1
43.18699789047241,39,37,42,263,56,36,43,37,1
43.204020500183105,36,35,43,333,55,35,41,36,1
43.2266685962677,32,35,52,289,64,38,46,35,1
43.24728536605835,32,40,51,267,62,42,49,38,1
43.26437449455261,32,38,50,280,54,39,40,35,1
43.28721880912781,31,35,54,338,65,36,42,37,1
43.307072162628174,34,37,50,273,64,36,41,37,1
43.32382917404175,35,36,41,273,50,32,36,35,1
43.34654474258423,34,31,40,268,53,32,34,33,1
43.36658596992493,35,30,39,275,55,33,34,34,1
43.38987898826599,35,31,32,253,45,33,32,30,1
43.40812635421753,34,29,34,257,51,34,35,31,1
43.4269859790802,31,31,34,256,55,37,38,33,1
43.45065259933472,33,34,33,262,53,34,37,33,1
43.466546297073364,30,35,33,272,55,32,35,30,1
43.48833990097046,34,44,45,317,69,41,43,33,1
43.50912380218506,34,42,44,308,67,40,40,38,1
43.527291774749756,36,43,52,307,67,42,39,35,1
43.546929597854614,40,42,55,315,68,45,40,39,1
43.569584369659424,40,49,63,293,82,56,55,45,1
43.5863151550293,37,45,57,184,71,51,51,44,1
43.607378244400024,36,47,57,196,73,51,50,39,1
43.62951970100403,35,46,58,202,78,50,52,44,1
43.64634656906128,30,44,57,220,77,48,51,40,1
43.667168617248535,29,35,48,222,57,35,36,33,1
43.68969917297363,29,30,48,272,55,35,37,35,1
43.70620584487915,28,32,46,278,52,37,36,34,1
43.727036237716675,26,34,36,271,40,36,35,28,1
43.74961447715759,25,34,33,248,41,34,35,34,1
43.766072511672974,29,33,47,257,52,33,34,36,1
43.78694462776184,31,47,62,220,74,47,47,34,1
43.80954313278198,31,44,65,212,79,46,49,33,1
43.82669687271118,36,41,65,247,77,46,46,31,1
43.84695243835449,37,44,66,255,79,50,49,27,1
43.86980652809143,35,45,57,230,77,50,49,28,1
43.88683819770813,34,29,37,230,61,32,35,27,1
43.90693545341492,36,30,35,238,53,32,33,27,1
43.92964577674866,35,41,47,227,78,39,42,33,1
43.94674301147461,46,40,53,269,82,34,38,32,1
43.96697974205017,44,40,52,287,77,37,38,32,1
43.98954701423645,46,42,54,332,78,40,41,35,1
44.00767540931702,46,43,59,330,81,41,42,36,1
44.027106523513794,44,35,53,333,61,39,36,33,1
44.04942512512207,32,33,44,310,53,39,37,37,1
44.06632900238037,34,33,47,294,57,41,40,36,1
44.08693528175354,38,28,45,254,54,40,37,35,1
44.10981249809265,35,32,37,255,53,44,37,33,1
44.131996154785156,40,33,36,258,53,40,33,34,1
44.146950483322144,43,35,41,288,63,44,38,33,1
44.16937804222107,41,36,40,295,63,42,36,33,1
44.18658804893494,37,37,39,284,62,40,36,31,1
44.20670485496521,36,34,45,289,64,35,35,32,1
44.22965598106384,31,34,52,290,63,41,44,31,1
44.24621295928955,24,39,51,242,59,43,46,30,1
44.26703214645386,26,47,54,239,63,46,49,30,1
44.28956174850464,29,47,55,231,63,47,50,32,1
44.312424421310425,31,46,52,245,58,47,50,33,1
44.32835936546326,31,47,48,248,58,42,42,34,1
44.34943628311157,34,43,45,246,53,36,37,33,1
44.372185945510864,36,34,41,244,47,29,30,34,1
44.387348651885986,36,32,48,240,46,29,31,34,1
44.409475803375244,35,36,46,202,44,32,31,32,1
44.431983947753906,37,36,44,183,40,34,32,31,1
44.44713497161865,38,38,45,173,43,36,34,34,1
44.46964979171753,36,38,45,190,41,38,36,33,1
44.49365592002869,33,41,36,215,43,39,37,32,1
44.5071325302124,33,38,36,238,48,36,36,31,1
44.52955150604248,35,38,38,222,53,34,38,31,1
44.55215668678284,32,36,37,229,49,34,34,26,1
44.568124771118164,33,35,38,236,49,32,34,28,1
44.58963680267334,36,33,40,213,46,32,32,29,1
44.61215591430664,36,33,41,222,42,34,32,30,1
44.62696647644043,36,30,37,222,37,32,30,29,1
44.64947533607483,35,27,44,246,42,29,31,32,1
44.67205858230591,35,29,49,240,47,28,30,31,1
44.68750476837158,34,28,47,243,50,27,31,32,1
44.71015119552612,32,27,48,220,50,22,31,31,1
44.73207354545593,29,28,53,289,53,27,29,33,1
44.74708676338196,31,32,48,270,52,33,31,36,1
44.769819259643555,30,31,42,263,48,33,30,35,1
44.792059898376465,29,32,44,263,47,36,28,34,1
44.807069301605225,36,42,48,271,60,43,41,38,1
44.829705476760864,36,44,47,190,56,40,40,37,1
44.85193133354187,34,43,48,191,54,36,39,33,1
44.86721467971802,35,44,51,214,59,42,47,34,1
44.88969898223877,36,44,49,221,60,43,49,34,1
44.91218304634094,31,34,43,206,49,36,41,30,1
44.927191734313965,38,29,39,218,50,37,43,33,1
44.94987726211548,37,33,37,261,51,39,42,34,1
44.97197079658508,37,31,34,234,45,34,35,33,1
44.98695373535156,37,31,35,263,44,33,31,30,1
45.00954866409302,36,35,36,270,44,35,30,30,1
45.03188347816467,28,39,37,261,43,37,35,28,1
45.04699468612671,29,37,40,286,43,36,37,30,1
45.069424867630005,28,48,46,298,47,46,46,28,1
45.093034505844116,31,48,50,283,44,47,49,30,1
45.10711145401001,30,44,52,296,47,47,46,31,1
45.12966060638428,32,43,53,295,54,49,45,31,1
45.15194010734558,35,45,53,228,60,48,45,31,1
45.166993618011475,37,40,51,221,67,46,43,33,1
45.18971610069275,32,43,49,188,70,43,42,33,1
45.2119836807251,33,46,46,181,66,44,44,34,1
45.22708988189697,33,51,45,205,61,45,43,35,1
45.249515533447266,32,48,46,192,55,48,44,33,1
45.27201509475708,30,44,42,216,44,42,39,34,1
45.29468250274658,33,46,46,246,50,49,48,36,1
45.309478998184204,33,44,50,236,51,45,48,35,1
45.340211391448975,32,39,49,240,59,42,48,35,1
45.354570388793945,37,42,49,268,69,39,47,41,1
45.36941885948181,38,45,51,256,71,41,46,42,1
45.39241170883179,36,42,48,248,64,32,35,39,1
45.41482710838318,36,45,48,243,66,35,36,38,1
45.4295392036438,39,43,49,297,61,33,35,35,1
45.45272898674011,32,43,45,293,48,29,33,29,1
45.47488880157471,33,37,45,288,47,30,33,25,1
45.48955845832825,34,34,45,281,52,30,30,27,1
45.51204872131348,35,32,43,296,50,28,28,30,1
45.53464365005493,36,37,43,216,52,34,27,32,1
45.549468755722046,39,41,55,204,72,45,43,34,1
45.57197856903076,41,42,59,196,76,43,46,38,1
45.59462118148804,43,43,62,193,77,44,46,40,1
45.60976815223694,41,45,67,213,80,48,51,39,1
45.632256269454956,39,41,70,255,81,47,53,40,1
45.65472173690796,33,38,58,250,64,40,42,37,1
45.66948890686035,32,41,54,286,63,39,42,33,1
45.69242238998413,32,46,52,291,63,45,46,34,1
45.71523857116699,34,46,43,257,57,41,43,34,1
45.72958421707153,36,45,39,225,52,38,42,31,1
45.75249695777893,41,45,46,286,57,38,43,39,1
45.77448487281799,39,44,44,249,50,36,41,40,1
45.78949761390686,37,38,39,252,45,30,37,37,1
45.81202745437622,42,51,63,285,72,38,52,45,1
45.834903717041016,42,52,64,274,78,43,54,46,1
45.85127234458923,37,50,58,214,73,41,51,40,1
45.872344732284546,39,50,58,215,74,43,51,37,1
45.89449739456177,39,51,59,217,76,48,54,38,1
45.90966248512268,33,37,35,202,52,42,38,31,1
45.93203139305115,33,36,30,214,41,39,34,33,1
45.954654932022095,36,38,35,200,48,40,40,34,1
45.96964907646179,34,38,36,199,46,39,39,35,1
45.99206042289734,33,36,35,188,44,34,37,35,1
46.01456046104431,33,35,33,166,43,35,34,39,1
46.02947521209717,31,38,42,184,45,37,39,38,1
46.05198311805725,27,34,42,205,37,35,31,37,1
46.07416343688965,28,31,42,211,43,36,35,38,1
46.08995795249939,35,35,42,218,45,38,35,37,1
46.11220908164978,35,39,43,224,51,39,35,32,1
46.134228467941284,35,35,34,198,50,35,31,34,1
46.1490957736969,38,40,30,209,54,35,33,33,1
46.172032833099365,37,45,31,207,53,39,32,32,1
46.19466853141785,32,43,38,216,49,36,32,32,1
46.217063188552856,30,42,42,232,47,35,36,33,1
48.542903661727905,33,27,62,138,51,75,73,32,2
48.5574631690979,34,30,68,148,58,75,71,32,2
48.57959961891174,31,30,64,144,58,75,72,32,2
48.602885723114014,32,31,66,125,54,89,79,31,2
48.62586212158203,32,28,67,142,53,73,60,29,2
48.63989806175232,31,28,53,111,44,71,57,28,2
48.662513732910156,30,30,49,97,33,69,58,27,2
48.67719745635986,29,29,48,89,33,93,80,27,2
48.69986963272095,29,29,43,94,38,76,70,26,2
48.72283124923706,30,29,48,113,38,75,68,27,2
48.737223386764526,30,31,58,130,39,74,68,28,2
48.75907063484192,31,24,56,131,37,84,77,29,2
48.782315254211426,35,24,57,133,39,82,67,31,2
48.79719138145447,33,25,65,145,42,83,66,30,2
48.819700479507446,36,27,75,159,52,83,66,29,2
48.84290790557861,35,24,68,151,51,83,65,28,2
48.85698843002319,34,25,69,148,53,97,77,30,2
48.87998628616333,31,25,68,147,52,80,69,29,2
48.90282940864563,31,24,63,138,45,80,71,29,2
48.91714072227478,30,23,47,100,36,87,76,29,2
48.940054416656494,31,24,45,90,38,103,89,30,2
48.96316146850586,30,24,44,91,41,82,71,28,2
48.97689127922058,31,25,43,95,41,78,69,26,2
49.00004529953003,31,24,40,92,46,76,66,27,2
49.02279496192932,31,27,49,93,43,74,67,26,2
49.044915199279785,31,26,52,99,43,76,72,26,2
49.059377670288086,33,26,49,98,39,80,76,27,2
49.08274960517883,32,27,52,94,39,82,77,27,2
49.10561561584473,32,28,52,84,34,108,96,25,2
49.11995506286621,29,28,44,77,38,106,94,29,2
49.14241433143616,28,29,42,72,35,91,84,29,2
49.165388107299805,30,30,42,77,37,90,80,29,2
49.17988872528076,28,29,41,81,39,88,78,30,2
49.20290493965149,29,29,37,82,41,76,70,32,2
49.22535681724548,27,26,39,71,35,75,66,29,2
49.23913884162903,29,25,43,82,37,72,58,29,2
49.26292181015015,27,25,42,79,35,71,57,29,2
49.28535032272339,28,25,44,79,38,90,70,33,2
49.29964065551758,28,27,47,78,37,74,53,32,2
49.322901248931885,33,23,41,96,47,75,54,32,2
49.3463397026062,32,25,42,117,49,74,54,31,2
49.359665393829346,32,25,45,120,50,84,62,29,2
49.38289260864258,34,24,43,117,47,69,57,27,2
49.405314683914185,36,23,41,117,47,69,58,27,2
49.41962766647339,31,24,44,112,37,66,56,28,2
49.44286394119263,33,25,37,77,34,85,70,30,2
49.467373847961426,36,23,35,82,36,78,65,32,2
49.4790575504303,34,24,35,86,38,72,56,31,2
49.50340962409973,35,23,37,95,36,70,56,30,2
49.52531290054321,37,22,35,102,42,89,71,32,2
49.53959131240845,36,20,43,115,43,72,60,31,2
49.56306576728821,33,24,45,116,48,70,61,31,2
49.58544039726257,35,27,47,116,48,89,84,34,2
49.59976935386658,33,27,47,114,50,91,85,35,2
49.622915744781494,30,28,47,107,44,76,74,33,2
49.64592432975769,29,28,59,126,47,74,73,32,2
49.66021418571472,29,29,60,123,39,76,76,32,2
49.68282604217529,29,26,60,122,37,71,66,29,2
49.705756187438965,28,27,59,120,36,70,69,28,2
49.719573974609375,29,26,56,112,36,66,67,31,2
49.74247074127197,31,26,56,121,41,67,72,34,2
49.76496911048889,30,21,55,129,42,74,76,34,2
49.77976965904236,29,25,53,127,42,61,66,32,2
49.80276966094971,30,24,53,126,42,60,65,31,2
49.82553458213806,29,24,54,123,45,62,66,31,2
49.839712381362915,28,25,37,77,36,65,66,28,2
49.86283874511719,29,25,44,67,34,79,64,28,2
49.88604402542114,27,23,44,72,35,78,60,29,2
49.899678468704224,29,22,45,79,38,79,60,32,2
49.92307114601135,30,23,46,78,40,96,72,28,2
49.945862770080566,30,23,43,73,39,98,71,29,2
49.95949363708496,32,22,33,79,40,80,64,27,2
49.982871770858765,33,23,35,80,40,79,65,29,2
50.00505566596985,30,25,35,78,38,77,63,26,2
50.028106451034546,35,25,33,77,35,73,64,31,2
50.051631689071655,38,23,37,80,34,68,61,29,2
50.06599569320679,37,24,39,70,33,68,61,32,2
50.087908029556274,36,23,37,66,31,67,59,29,2
50.1029372215271,39,24,40,75,31,84,66,31,2
50.12534952163696,33,24,41,79,31,80,63,29,2
50.147605180740356,31,24,43,100,36,82,61,31,2
50.16247820854187,30,26,45,108,36,93,67,32,2
50.18485116958618,29,27,49,118,37,107,79,38,2
50.20917749404907,27,26,46,110,33,94,73,38,2
50.223002433776855,30,25,45,108,34,83,62,37,2
50.24546003341675,31,26,40,90,32,82,66,38,2
50.27608132362366,32,26,37,88,32,79,63,39,2
50.28302574157715,34,23,33,81,32,61,51,35,2
50.30549883842468,37,26,42,88,32,63,52,35,2
50.32786011695862,36,26,43,88,31,86,69,36,2
50.34306240081787,36,26,43,84,27,84,69,33,2
50.36544108390808,35,23,39,68,27,75,63,29,2
50.38793873786926,34,23,55,135,32,74,63,30,2
50.402369260787964,32,22,51,141,34,95,73,29,2
50.42625188827515,32,21,50,143,34,80,62,27,2
50.44805121421814,30,23,50,145,37,80,63,29,2
50.46241235733032,32,24,50,146,39,82,66,28,2
50.485528230667114,30,27,33,97,38,100,79,28,2
50.50817370414734,28,26,57,203,55,80,70,29,2
50.52228116989136,27,27,61,217,58,77,67,29,2
50.545485734939575,27,24,62,217,56,79,65,34,2
50.56778144836426,26,24,64,217,55,77,61,35,2
50.582403898239136,26,20,62,212,54,71,51,35,2
50.60552740097046,30,22,47,134,35,79,57,34,2
50.62789988517761,30,21,44,124,33,79,58,34,2
50.64248013496399,32,22,43,123,33,75,57,31,2
50.66535258293152,32,23,43,121,35,93,70,30,2
50.68789458274841,35,24,44,120,36,83,67,30,2
50.702264070510864,31,25,36,91,39,79,61,29,2
50.72557616233826,31,24,35,76,37,77,62,29,2
50.74798512458801,31,26,34,75,37,98,76,27,2
50.762670278549194,29,26,36,82,34,81,64,29,2
50.78564810752869,29,27,36,79,30,81,66,27,2
50.80828666687012,32,24,38,95,25,78,65,29,2
50.82227349281311,32,22,38,98,26,91,82,31,2
50.84542202949524,31,20,37,99,25,75,76,33,2
50.869030237197876,35,19,37,95,28,75,76,31,2
50.882142543792725,32,21,41,102,31,69,73,31,2
50.90550422668457,33,22,44,90,33,71,74,30,2
50.92789006233215,33,23,42,82,34,79,69,28,2
50.95046615600586,31,22,42,82,34,73,63,26,2
50.965779304504395,30,24,46,85,37,72,64,27,2
50.98785924911499,32,21,48,98,36,70,63,29,2
51.01035475730896,32,22,43,91,35,72,65,28,2
51.02702260017395,33,22,45,93,37,65,60,28,2
51.04753112792969,34,24,48,91,38,66,59,31,2
51.07035565376282,34,25,44,98,34,67,61,31,2
51.08601641654968,38,25,52,128,39,86,83,36,2
51.1078782081604,37,24,51,127,38,85,80,36,2
51.13062238693237,36,23,50,127,41,71,74,36,2
51.145583629608154,36,22,47,126,40,71,74,35,2
51.167778968811035,36,21,45,120,42,71,73,35,2
51.190536975860596,35,22,35,78,39,77,58,29,2
51.20579671859741,36,22,39,76,39,78,62,32,2
51.2280797958374,35,22,38,72,36,78,60,32,2
51.25055480003357,38,22,47,88,38,79,59,34,2
51.2811861038208,35,22,45,92,39,94,72,34,2
51.287670850753784,31,22,42,98,39,77,67,35,2
51.31038784980774,31,22,42,98,39,75,62,32,2
51.324753522872925,32,24,41,98,43,95,80,32,2
51.34796953201294,29,26,39,113,44,102,86,31,2
51.370895862579346,33,27,44,126,48,90,76,33,2
51.38547396659851,33,25,45,120,46,86,74,30,2
51.40786409378052,35,26,50,121,46,86,74,31,2
51.43069553375244,34,25,57,129,41,87,70,33,2
51.44481611251831,36,25,54,106,38,79,65,33,2
51.4675018787384,36,22,53,110,29,77,63,31,2
51.49003314971924,34,22,51,105,28,77,62,33,2
51.50480079650879,33,20,46,108,33,92,78,35,2
51.52848815917969,33,20,38,100,35,72,70,33,2
51.550451040267944,30,26,52,142,42,71,68,34,2
51.56483316421509,29,31,55,137,42,68,65,34,2
51.58785891532898,29,31,55,143,45,96,86,33,2
51.61050748825073,29,32,59,144,46,84,75,31,2
51.625234842300415,29,33,59,148,52,84,72,32,2
51.64795660972595,32,29,46,113,46,87,74,28,2
51.66985607147217,32,25,42,105,50,114,99,27,2
51.68510293960571,34,26,46,99,48,91,84,27,2
51.707984924316406,32,29,40,95,47,92,84,27,2
51.730347633361816,34,27,41,99,44,89,83,27,2
51.74468159675598,31,27,43,98,44,91,85,31,2
51.76827073097229,33,27,41,93,38,79,73,33,2
51.790454626083374,32,30,36,88,42,78,74,35,2
51.80478382110596,34,26,38,103,38,74,68,35,2
51.827845096588135,32,26,40,106,38,95,84,36,2
51.850672245025635,32,25,43,107,39,94,84,31,2
51.86481714248657,30,24,42,105,39,76,71,29,2
51.88792967796326,29,22,45,110,33,88,75,31,2
51.91145300865173,27,23,42,91,34,101,82,28,2
51.932979345321655,25,23,45,84,30,85,66,29,2
51.948012828826904,28,26,45,85,37,82,61,30,2
51.97041392326355,28,26,46,92,38,80,58,29,2
51.99294304847717,28,26,47,92,42,85,62,27,2
52.007899045944214,28,26,47,92,42,74,59,29,2
52.030665159225464,30,27,47,92,42,72,58,32,2
52.05278563499451,27,23,41,85,39,75,61,33,2
52.068154096603394,30,22,46,80,39,91,76,37,2
52.09076428413391,30,25,55,106,40,79,67,35,2
52.11296248435974,29,24,56,113,41,75,63,36,2
52.12815451622009,30,24,53,109,39,97,78,33,2
52.150453090667725,31,25,53,107,36,101,82,33,2
52.17349934577942,29,28,50,116,36,92,73,28,2
52.18788719177246,27,26,36,107,40,91,71,29,2
52.21061825752258,28,27,35,105,41,116,92,26,2
52.23346185684204,27,26,40,133,47,103,86,27,2
52.247217655181885,28,26,44,144,46,96,79,23,2
52.27045154571533,31,24,40,135,48,93,75,27,2
52.293299198150635,33,24,41,131,43,114,100,26,2
52.307270526885986,34,24,40,129,44,95,85,25,2
52.33056616783142,38,23,36,100,39,89,79,25,2
52.35301470756531,38,24,34,100,45,87,81,28,2
52.36725306510925,41,23,38,109,56,115,101,27,2
52.39034056663513,43,22,41,115,55,93,79,33,2
52.412901639938354,40,21,42,120,53,88,74,33,2
52.42730236053467,39,27,48,126,55,100,84,35,2
52.451815605163574,40,26,47,117,50,115,100,36,2
52.47244095802307,37,30,45,107,38,89,81,36,2
52.49535322189331,34,32,44,110,43,87,81,32,2
52.51452136039734,34,32,46,110,45,116,101,33,2
52.53217267990112,32,28,40,109,43,109,96,32,2
52.5549213886261,31,30,45,120,48,96,79,30,2
52.57160139083862,28,26,46,126,45,98,81,31,2
52.592190980911255,28,24,42,103,37,107,87,31,2
52.615010023117065,29,25,47,104,36,77,63,30,2
52.63245511054993,28,24,46,98,39,72,58,31,2
52.652212619781494,25,21,46,107,39,81,69,34,2
52.674684047698975,28,25,46,104,42,105,87,34,2
52.692033529281616,30,24,48,102,45,97,84,34,2
52.714362382888794,30,27,45,101,44,95,83,34,2
52.73479747772217,35,29,46,100,40,115,102,35,2
52.751704454422,36,28,41,89,36,110,98,31,2
52.77220916748047,34,26,49,102,34,83,78,29,2
52.79482126235962,32,24,50,110,33,82,76,29,2
52.811569929122925,31,21,52,116,40,120,100,31,2
52.83267879486084,30,20,54,133,43,104,85,29,2
52.85469961166382,30,21,54,120,39,102,82,30,2
52.87208294868469,34,21,45,108,39,117,97,33,2
52.892125368118286,33,22,54,119,38,120,97,31,2
52.915215492248535,33,23,47,106,32,82,69,29,2
52.9324517250061,30,23,44,84,33,80,65,32,2
52.95222592353821,29,23,43,81,33,97,76,36,2
52.97490930557251,25,24,46,90,35,77,57,35,2
52.99163341522217,27,24,35,73,33,70,56,34,2
53.01219296455383,31,24,35,85,34,69,59,34,2
53.034924030303955,32,23,40,94,33,84,67,29,2
53.0566246509552,32,23,46,111,34,63,53,26,2
53.07213759422302,32,25,43,105,30,74,72,25,2
53.09468054771423,34,24,46,113,32,78,77,31,2
53.112173318862915,31,26,45,103,31,96,86,33,2
53.132262229919434,32,27,41,94,31,82,80,34,2
53.15488529205322,32,28,39,87,34,81,80,33,2
53.171324729919434,31,24,41,87,36,75,67,32,2
53.192108392715454,29,27,48,93,44,97,73,29,2
53.21483612060547,29,25,50,109,46,82,63,29,2
53.23162651062012,25,23,54,116,46,84,64,27,2
53.252676010131836,26,21,55,118,50,91,68,26,2
53.27505135536194,28,21,57,132,52,101,75,28,2
53.2916464805603,27,20,49,120,47,81,66,26,2
53.31256318092346,29,19,49,109,45,80,65,26,2
53.33485245704651,32,23,42,110,45,81,70,28,2
53.35168957710266,30,23,38,102,40,100,80,29,2
53.372899770736694,28,24,33,84,38,90,71,27,2
53.39460468292236,29,24,31,78,34,89,69,30,2
53.41088533401489,28,26,31,94,32,89,68,28,2
53.432190895080566,25,25,40,95,41,94,67,27,2
53.454747676849365,27,26,41,91,46,84,61,26,2
53.47132134437561,27,28,42,87,44,85,65,27,2
53.49173402786255,26,28,44,94,45,87,69,25,2
53.514994859695435,24,27,46,89,50,105,82,28,2
53.531633138656616,28,25,39,81,42,102,78,29,2
53.5525336265564,28,24,40,84,36,88,71,31,2
53.57421684265137,30,24,42,85,38,82,65,31,2
53.59242296218872,31,25,39,82,39,99,78,31,2
53.61235785484314,31,23,38,85,33,88,71,30,2
53.634889364242554,30,26,40,87,34,85,71,30,2
53.652976512908936,29,29,43,92,43,86,71,32,2
53.67212271690369,27,29,41,96,44,102,80,33,2
53.694983959198,28,28,45,92,44,84,67,34,2
53.711923599243164,29,30,46,94,44,76,59,32,2
53.73177528381348,30,31,46,99,44,75,57,32,2
53.75465369224548,32,28,41,97,35,98,72,31,2
53.77306890487671,31,26,41,100,33,82,62,30,2
53.79195213317871,30,28,37,99,29,79,58,28,2
53.81419348716736,30,26,38,103,33,108,92,32,2
53.83739471435547,28,25,37,98,41,111,98,32,2
53.852601766586304,29,25,36,95,41,90,88,31,2
53.874712228775024,31,26,34,93,43,92,89,33,2
53.89729022979736,31,27,35,97,44,114,103,37,2
53.9124550819397,32,26,32,94,45,92,80,34,2
53.934757232666016,32,30,33,90,39,91,74,33,2
53.95722985267639,30,31,36,93,40,88,70,33,2
53.97271966934204,30,31,49,100,36,100,76,33,2
53.995237827301025,32,30,48,100,35,78,62,35,2
54.01726269721985,33,33,50,95,36,75,58,39,2
54.03235936164856,31,27,47,95,32,78,59,38,2
54.05499768257141,34,24,47,94,36,85,69,40,2
54.07751512527466,32,25,32,79,36,89,74,36,2
54.09190225601196,30,22,34,74,36,87,75,33,2
54.11496448516846,32,24,36,75,38,86,76,29,2
54.13716793060303,32,25,39,90,41,103,86,28,2
54.15224647521973,29,25,46,94,40,102,81,25,2
54.17500162124634,31,24,47,94,39,85,69,27,2
54.19796681404114,32,27,49,97,40,85,63,22,2
54.21283960342407,36,25,47,94,34,92,67,26,2
54.23505878448486,38,24,45,86,37,96,75,26,2
54.25722408294678,38,24,35,77,34,93,74,25,2
54.27223610877991,37,27,42,82,34,92,76,27,2
54.29493594169617,38,25,44,87,34,122,100,30,2
54.3173885345459,31,24,44,85,37,122,103,26,2
54.33242392539978,32,26,48,84,34,102,88,27,2
54.35478663444519,34,26,48,84,36,103,88,33,2
54.376789808273315,34,24,43,93,42,123,100,33,2
54.392314434051514,35,28,50,106,44,98,87,34,2
54.41477036476135,39,28,51,109,42,90,78,34,2
54.43818283081055,37,26,47,105,41,90,78,34,2
54.45221257209778,38,27,48,106,42,105,88,31,2
54.47556018829346,39,27,49,104,36,81,73,29,2
54.49723982810974,36,24,41,93,34,77,64,27,2
54.51171326637268,32,25,39,93,35,76,63,27,2
54.5348687171936,32,27,40,95,35,101,77,27,2
54.55735468864441,30,25,40,93,37,82,62,24,2
54.572226762771606,32,26,38,89,39,82,64,24,2
54.59452176094055,33,25,42,95,40,85,63,24,2
54.61721134185791,31,25,45,98,39,101,75,24,2
54.63217735290527,31,27,46,100,40,77,60,30,2
54.662376165390015,30,26,45,101,36,80,64,31,2
54.67713212966919,28,27,49,107,37,89,72,31,2
54.692119121551514,29,26,42,97,35,91,76,31,2
54.71487355232239,30,27,38,100,37,77,75,32,2
54.73737573623657,31,23,42,103,35,75,75,26,2
54.75986838340759,34,27,45,112,43,80,78,28,2
54.7747528553009,31,28,41,123,40,85,80,28,2
54.79740047454834,31,30,45,128,43,88,82,30,2
54.82091546058655,34,29,47,123,41,87,74,30,2
54.83469080924988,32,29,41,120,43,90,74,30,2
54.85747480392456,31,27,42,130,44,104,86,29,2
54.87979602813721,31,25,40,111,46,92,76,30,2
54.89511847496033,32,21,37,121,46,85,72,28,2
54.9172728061676,28,22,36,115,50,82,71,27,2
54.94026279449463,27,23,36,120,49,101,82,28,2
54.95493793487549,26,25,38,107,41,81,64,29,2
54.977869510650635,26,26,39,111,40,80,63,32,2
54.999834060668945,27,26,40,96,39,75,58,32,2
55.01506686210632,27,28,42,98,40,105,75,33,2
55.03722071647644,29,28,44,94,38,88,70,32,2
55.0600688457489,29,26,41,87,40,89,71,33,2
55.07473969459534,30,24,40,81,36,90,74,28,2
55.0975067615509,28,24,38,86,36,104,79,29,2
55.11978316307068,29,23,34,80,34,83,70,32,2
55.13641715049744,29,24,39,98,38,84,65,34,2
55.15721797943115,29,27,44,110,36,81,65,35,2
55.17992281913757,28,27,44,116,41,100,80,36,2
55.194767236709595,28,28,47,120,40,88,77,36,2
55.21804237365723,28,28,47,119,41,81,73,33,2
55.24005889892578,27,29,42,112,36,78,74,34,2
55.25471830368042,35,28,38,99,38,102,91,37,2
55.277263879776,35,28,39,91,33,85,80,38,2
55.30001783370972,35,29,35,90,32,85,79,38,2
55.314937353134155,35,28,41,110,39,85,77,37,2
55.33728313446045,35,28,41,105,43,97,87,33,2
55.35979175567627,32,26,39,106,41,86,82,30,2
55.374682903289795,31,26,41,107,43,84,80,28,2
55.397655725479126,31,25,43,95,44,83,79,28,2
55.41981291770935,31,27,39,71,36,83,78,31,2
55.43484306335449,33,25,38,80,38,106,85,35,2
55.45720982551575,32,28,38,80,47,101,77,35,2
55.479756593704224,33,26,34,89,49,99,75,36,2
55.49661898612976,35,26,27,90,51,99,76,35,2
55.51766562461853,34,22,44,121,50,98,77,34,2
55.539734840393066,31,23,47,122,50,55,52,31,2
55.55481290817261,32,22,47,123,43,75,62,29,2
55.57792544364929,31,23,47,115,40,77,67,27,2
55.599804639816284,28,23,49,125,36,80,68,27,2
55.61475896835327,29,25,36,104,39,83,67,25,2
55.63725233078003,31,25,47,108,41,81,65,25,2
55.660165548324585,31,24,49,108,43,82,73,28,2
55.68294930458069,31,23,53,129,44,79,69,30,2
55.69727325439453,30,24,53,120,42,74,67,30,2
55.720062017440796,28,24,54,132,44,75,68,30,2
55.74230623245239,26,28,43,124,44,94,82,30,2
55.7573823928833,24,29,45,133,41,71,60,26,2
55.7803008556366,27,28,50,133,41,74,60,29,2
55.80236530303955,29,28,52,134,43,73,61,29,2
55.81747341156006,30,31,50,119,42,77,70,30,2
55.83984923362732,34,27,51,121,41,70,67,33,2
55.86252427101135,35,25,48,127,42,70,65,34,2
55.876928091049194,32,28,49,118,41,66,64,33,2
55.89952850341797,36,25,45,115,44,69,65,34,2
55.922510385513306,35,20,45,111,39,76,65,34,2
55.937230825424194,31,24,44,102,36,64,53,31,2
55.959824562072754,31,25,44,105,36,63,51,29,2
55.99058961868286,31,24,45,121,40,68,54,30,2
55.99728059768677,30,25,55,142,41,69,54,31,2
56.019866704940796,31,26,58,153,44,68,55,31,2
56.04254674911499,32,22,58,153,42,77,67,33,2
56.057313442230225,32,21,57,135,40,85,77,35,2
56.07983589172363,34,20,51,139,38,83,76,30,2
56.10236644744873,32,24,44,137,46,95,82,30,2
56.117329835891724,32,22,39,126,44,85,74,31,2
56.13975667953491,35,23,39,127,44,78,65,32,2
56.162286043167114,34,26,46,144,46,68,56,31,2
56.17749094963074,35,25,44,125,44,68,55,32,2
56.1999089717865,36,24,44,111,36,71,64,32,2
56.22230815887451,34,24,44,111,36,76,72,30,2
56.237318992614746,33,28,44,110,41,83,74,29,2
56.25991177558899,37,26,36,93,41,95,83,30,2
56.2840211391449,37,26,34,105,46,120,105,29,2
56.29749083518982,38,25,31,99,43,107,95,30,2
56.32137942314148,40,26,39,109,46,103,90,31,2
56.34239673614502,37,20,36,107,42,97,87,34,2
56.3572793006897,34,22,40,117,41,109,93,35,2
56.38018274307251,33,23,42,109,38,85,71,35,2
56.40267634391785,35,23,48,110,39,89,70,34,2
56.41742277145386,33,22,42,104,39,92,73,34,2
56.44023895263672,34,24,46,113,39,91,72,30,2
56.46233892440796,36,28,45,101,43,84,67,31,2
56.47735905647278,34,28,47,97,47,88,68,32,2
56.499919176101685,29,29,41,92,45,86,70,32,2
56.52239370346069,32,29,40,88,44,81,63,32,2
56.53780245780945,34,29,38,87,45,80,62,31,2
56.55984663963318,33,26,43,99,44,86,71,29,2
56.582517862319946,32,26,41,113,45,87,71,28,2
56.604899406433105,34,25,41,116,46,87,74,27,2
56.61979365348816,35,26,42,118,43,88,79,30,2
56.64297652244568,37,25,43,119,42,101,94,30,2
56.66528129577637,40,23,35,103,41,84,81,31,2
56.68003726005554,40,22,42,102,33,75,77,32,2
56.70261549949646,38,26,41,111,38,75,75,34,2
56.72495937347412,36,32,48,122,51,80,78,32,2
56.73979330062866,31,31,47,117,55,86,75,34,2
56.76340126991272,29,32,49,120,55,80,73,32,2
56.78468060493469,29,33,42,116,57,82,74,32,2
56.80037260055542,28,30,44,109,53,80,74,32,2
56.82246160507202,29,28,55,117,54,77,70,30,2
56.84482455253601,34,28,54,112,52,80,70,31,2
56.85980749130249,35,27,53,113,54,80,67,34,2
56.88264775276184,36,28,56,130,52,77,65,32,2
56.90485382080078,38,27,55,128,52,79,68,34,2
56.91942596435547,37,25,38,112,45,85,74,36,2
56.95107674598694,34,27,39,117,45,87,78,36,2
56.96485185623169,34,28,40,115,41,88,80,35,2
56.97975277900696,33,27,39,134,45,87,82,37,2
57.00228548049927,33,33,43,152,51,122,108,36,2
57.02496647834778,32,32,44,164,48,120,105,35,2
57.0395827293396,33,32,44,163,44,102,93,34,2
57.0625262260437,35,32,41,166,45,105,95,32,2
57.0848753452301,35,33,43,132,42,126,107,30,2
57.099812030792236,34,28,39,118,38,94,76,26,2
57.122424840927124,34,28,40,105,35,94,78,27,2
57.14531111717224,32,27,41,114,45,93,77,28,2
57.15976691246033,29,26,46,141,45,108,88,29,2
57.1825065612793,29,27,39,136,47,86,74,32,2
57.20480227470398,27,28,39,130,45,88,76,32,2
57.219834089279175,27,27,40,131,53,82,70,30,2
57.24234485626221,30,26,44,129,46,82,67,29,2
57.2655713558197,33,25,45,127,51,74,64,27,2
57.28035759925842,35,25,47,127,52,99,89,27,2
57.3026180267334,35,27,50,125,52,100,92,29,2
57.324787855148315,37,29,50,114,46,100,91,30,2
57.33971667289734,33,30,47,111,45,99,91,29,2
57.36236000061035,30,31,43,86,38,95,94,28,2
57.385284185409546,30,29,41,102,36,86,84,25,2
57.4000461101532,29,26,37,108,37,82,80,28,2
57.42257833480835,29,25,42,114,35,83,79,29,2
57.444886207580566,31,33,50,120,41,84,80,29,2
57.4603316783905,35,33,49,115,41,99,88,32,2
57.48259735107422,33,32,49,113,40,83,77,38,2
57.50514578819275,34,34,53,115,44,89,80,36,2
57.519856691360474,33,33,47,113,44,89,79,36,2
57.542407512664795,32,24,35,97,40,107,95,36,2
57.56554698944092,28,25,44,101,44,84,74,34,2
57.58804726600647,28,25,48,87,46,86,73,31,2
57.602394104003906,27,28,47,78,41,81,72,30,2
57.62511396408081,25,31,52,86,42,87,82,30,2
57.64827537536621,25,30,52,89,39,87,78,29,2
57.66249084472656,26,29,48,91,36,86,78,29,2
57.68486452102661,27,29,43,90,35,83,77,26,2
57.70845103263855,29,27,43,95,38,82,74,27,2
57.722530126571655,30,23,39,85,40,91,74,24,2
57.744927167892456,33,22,44,90,50,85,67,25,2
57.76800298690796,32,22,42,81,51,86,67,26,2
57.782596826553345,31,22,43,81,50,85,64,25,2
57.80486845970154,30,22,46,88,47,84,65,31,2
57.82852482795715,30,23,45,94,46,104,90,32,2
57.842653036117554,30,24,41,105,36,100,90,31,2
57.8657500743866,30,24,43,101,31,100,91,31,2
57.88820242881775,31,23,44,103,30,100,93,33,2
57.90250635147095,29,21,41,116,34,122,107,29,2
57.92492938041687,31,22,38,115,34,92,79,30,2
57.948493003845215,28,23,43,121,39,83,71,29,2
57.962390661239624,29,22,39,128,44,82,74,28,2
57.98488736152649,30,22,38,129,47,103,83,29,2
58.00806427001953,30,22,38,115,45,77,69,27,2
58.02236843109131,32,20,39,113,43,78,68,26,2
58.044994831085205,33,19,38,97,42,85,73,29,2
58.06822347640991,33,20,39,96,43,100,83,30,2
58.08253622055054,33,23,37,94,41,77,74,29,2
58.10511565208435,34,22,42,114,45,76,69,33,2
58.128167152404785,31,24,42,122,48,80,71,36,2
58.14239025115967,30,24,46,121,49,96,77,34,2
58.16526913642883,31,26,45,117,45,87,68,34,2
58.18828511238098,30,25,46,126,49,87,65,35,2
58.20200037956238,29,27,42,129,49,89,68,31,2
58.22435641288757,30,29,49,126,46,93,74,30,2
58.24868178367615,31,28,42,123,43,93,77,30,2
58.262961864471436,32,26,46,130,41,86,71,30,2
58.2849006652832,31,28,45,118,34,92,80,28,2
58.30878829956055,34,28,44,100,27,93,78,27,2
58.322500705718994,36,27,37,93,37,93,78,25,2
58.34538984298706,34,26,41,102,38,85,75,26,2
58.368016719818115,33,27,40,96,40,83,74,26,2
58.38371825218201,36,25,46,113,48,80,67,27,2
58.405033349990845,35,24,48,119,49,77,66,29,2
58.428621768951416,34,25,47,119,41,70,67,31,2
58.442439794540405,35,24,43,116,43,70,65,30,2
58.4648962020874,37,24,47,119,45,78,71,30,2
58.48817706108093,33,22,42,104,36,74,70,30,2
58.50235295295715,31,23,44,100,36,79,71,29,2
58.52489471435547,35,23,45,120,42,107,89,32,2
58.54862356185913,35,25,46,120,46,96,80,34,2
58.57079195976257,32,25,39,111,41,91,76,32,2
58.584978103637695,34,26,39,117,43,102,87,34,2
58.60815191268921,35,24,39,120,42,108,91,35,2
58.63098669052124,29,28,49,132,47,88,73,31,2
58.65316820144653,29,27,49,128,45,89,74,31,2
58.66810584068298,30,28,51,129,49,92,79,33,2
58.69103169441223,33,27,49,125,48,79,66,32,2
58.70492720603943,35,28,46,120,51,94,75,33,2
58.72812247276306,35,23,39,104,42,83,68,34,2
58.7507963180542,33,23,40,111,38,82,68,32,2
58.76554322242737,33,23,39,111,37,81,61,30,2
58.78833270072937,34,22,39,111,38,107,79,32,2
58.81075096130371,32,21,39,132,39,87,71,31,2
58.82487392425537,32,22,33,114,40,88,70,31,2
58.84893488883972,32,21,28,105,42,87,72,31,2
58.87866950035095,30,21,30,107,42,108,85,33,2
58.884974002838135,27,22,35,120,40,86,74,31,2
58.90868878364563,28,22,38,113,37,86,69,29,2
58.93017387390137,28,21,40,120,42,87,72,32,2
58.944804430007935,28,22,43,124,40,88,71,31,2
58.96813607215881,30,20,45,125,39,63,58,35,2
58.99166703224182,29,23,46,125,39,83,75,34,2
59.00482225418091,29,26,43,102,43,80,76,35,2
59.02999973297119,28,26,45,97,35,80,73,33,2
59.050671339035034,28,28,46,101,41,81,73,34,2
59.06521964073181,31,29,47,114,44,81,74,29,2
59.08817958831787,33,29,48,114,44,75,60,31,2
59.11071252822876,30,27,50,119,44,80,60,34,2
59.12529945373535,31,28,48,119,45,85,72,34,2
59.148096323013306,32,25,45,117,43,82,72,33,2
59.17086434364319,26,26,41,109,37,83,72,33,2
59.18485999107361,23,32,40,102,42,79,75,34,2
59.208083391189575,23,33,39,116,39,71,73,33,2
59.23088192939758,23,31,36,114,39,68,65,33,2
59.24483847618103,23,32,37,108,38,96,90,34,2
59.268110036849976,28,33,45,116,44,95,90,35,2
59.29057478904724,32,24,41,120,40,86,83,32,2
59.304917097091675,31,23,41,102,41,87,82,31,2
59.328306436538696,33,24,51,110,45,86,81,30,2
59.35074853897095,32,26,50,110,45,73,62,30,2
59.365121364593506,29,23,43,93,42,76,62,32,2
59.38842558860779,27,24,50,101,44,74,60,32,2
59.41086196899414,29,24,51,101,42,72,59,36,2
59.42527675628662,27,26,54,109,45,77,65,37,2
59.44809150695801,28,26,56,110,44,88,77,35,2
59.47100043296814,28,27,56,120,45,85,76,36,2
59.493568658828735,26,27,49,104,47,86,79,36,2
59.507485151290894,26,28,47,106,48,110,98,32,2
59.53069734573364,27,25,38,94,45,107,95,33,2
59.5536322593689,27,23,35,97,45,87,76,34,2
59.56735444068909,26,22,33,83,42,88,82,30,2
59.591031312942505,32,21,36,110,40,107,90,31,2
59.613428354263306,34,19,39,110,41,85,69,27,2
59.62739038467407,33,20,39,110,41,85,68,29,2
59.6508686542511,38,20,40,108,37,98,79,30,2
59.67378568649292,40,22,51,147,39,108,86,33,2
59.68745255470276,36,25,58,144,47,91,82,34,2
59.710646629333496,33,25,55,144,45,93,89,36,2
59.73336052894592,34,27,55,150,43,91,93,35,2
59.74746060371399,29,27,54,152,45,79,85,35,2
59.770716428756714,30,26,49,121,44,93,88,30,2
59.79308843612671,30,23,40,98,33,90,81,29,2
59.80755877494812,32,23,48,97,38,88,86,35,2
59.83096504211426,31,20,46,79,40,86,82,35,2
59.85314631462097,32,22,48,77,41,113,97,34,2
59.86744999885559,31,22,43,83,42,90,87,36,2
59.89105272293091,30,23,42,86,41,91,88,36,2
59.91396188735962,30,22,34,82,36,89,75,29,2
59.92743158340454,31,24,35,95,39,90,75,28,2
59.95073056221008,28,22,35,99,38,89,79,30,2
59.97322416305542,30,22,34,95,41,108,92,28,2
59.98767685890198,34,23,33,95,41,107,93,26,2
60.010586738586426,33,23,33,99,45,107,93,28,2
60.03345537185669,33,21,31,85,40,112,98,29,2
60.04753851890564,35,23,34,100,44,113,94,27,2
60.07087969779968,35,23,39,104,42,100,85,30,2
60.09286856651306,31,24,39,105,45,100,84,33,2
60.10750198364258,31,25,41,109,47,100,89,33,2
60.13130068778992,33,25,40,108,47,120,111,31,2
60.153759479522705,30,24,35,89,44,96,99,33,2
60.167434215545654,28,22,33,98,41,89,92,31,2
60.19069242477417,30,26,40,97,38,91,94,31,2
60.21256065368652,30,27,42,91,30,99,107,39,2
60.228007555007935,32,28,42,92,33,90,88,42,2
60.25067353248596,33,27,45,100,35,87,86,42,2
60.274083852767944,33,29,48,110,42,86,85,43,2
60.28752112388611,33,27,48,125,46,83,83,40,2
60.31098198890686,35,25,46,123,49,73,58,35,2
60.33365201950073,33,23,47,127,50,99,88,35,2
60.348026275634766,32,24,46,126,47,100,90,32,2
60.370702505111694,33,23,44,107,40,102,92,33,2
60.393401861190796,31,19,41,90,34,103,92,33,2
60.407716512680054,29,23,42,100,34,101,93,32,2
60.4303081035614,29,22,40,98,28,51,53,31,2
60.45309567451477,33,23,43,125,33,73,61,30,2
60.47562265396118,35,24,39,121,34,71,68,30,2
60.49059796333313,36,27,37,122,39,71,72,32,2
60.51318049430847,36,28,39,113,38,73,71,33,2
60.536070585250854,37,30,44,115,40,72,70,33,2
60.55062437057495,36,29,41,82,39,88,85,34,2
60.57321119308472,36,30,42,78,39,91,80,35,2
60.59610319137573,35,30,44,80,41,92,78,33,2
60.61103320121765,34,27,43,96,41,92,78,33,2
60.63315224647522,32,25,40,107,39,97,82,34,2
60.65643000602722,30,26,42,114,38,85,72,34,2
60.67105841636658,27,24,41,112,39,82,69,33,2
60.69345498085022,28,21,37,118,34,83,72,35,2
60.71566700935364,29,22,49,146,50,99,87,37,2
60.732311964035034,30,23,51,139,49,95,84,35,2
60.75339460372925,31,22,48,127,47,78,74,35,2
60.77558398246765,31,22,48,126,50,84,81,38,2
60.79064416885376,34,24,56,143,56,98,86,40,2
60.820775747299194,33,23,44,113,44,84,72,37,2
60.83571171760559,31,26,40,111,48,93,92,38,2
60.850136041641235,30,27,44,117,48,96,94,37,2
60.87311244010925,32,30,59,138,52,100,98,35,2
60.89556646347046,30,28,57,130,48,86,93,33,2
60.91028618812561,32,31,57,125,47,86,91,33,2
60.933748722076416,34,29,60,138,51,76,72,30,2
60.955689430236816,36,29,60,136,51,86,82,31,2
60.970359802246094,36,26,54,132,45,94,93,31,2
60.99310564994812,35,29,56,119,43,92,91,29,2
61.01583933830261,34,28,58,119,44,91,94,29,2
61.03021764755249,32,28,57,117,40,93,95,30,2
61.05324578285217,32,28,57,119,42,129,125,35,2
61.07594561576843,29,28,51,112,41,120,113,36,2
61.08997297286987,31,25,46,110,41,122,115,39,2
61.113231897354126,32,23,45,111,39,121,112,39,2
61.13562560081482,32,27,44,96,35,154,153,41,2
61.15077185630798,33,28,45,93,38,115,121,36,2
61.17323064804077,35,28,43,91,37,110,118,34,2
61.19569778442383,35,26,43,97,38,109,117,32,2
61.20998167991638,34,27,48,90,40,110,118,33,2
61.2331657409668,35,25,53,105,45,90,82,35,2
61.255635023117065,33,24,53,120,44,93,85,37,2
61.270015001297,35,24,52,116,44,93,86,38,2
61.293248653411865,35,27,52,109,43,95,87,37,2
61.315744161605835,37,28,46,114,50,94,85,38,2
61.3300359249115,36,25,41,107,46,63,58,36,2
61.35344314575195,38,25,40,97,45,79,57,35,2
61.375596046447754,36,25,39,91,45,94,66,36,2
61.39872980117798,38,26,38,92,45,94,64,39,2
61.413222551345825,39,24,36,88,34,93,63,38,2
61.43647074699402,37,25,33,87,33,114,85,37,2
61.4582245349884,34,26,39,91,32,100,84,38,2
61.47313737869263,32,27,44,102,36,90,82,34,2
61.495712757110596,32,25,45,105,36,88,79,34,2
61.518152475357056,33,26,51,121,40,93,84,34,2
61.53327417373657,33,27,50,112,39,92,84,33,2
61.55562949180603,33,26,48,107,41,103,89,37,2
61.5799036026001,34,29,45,108,41,101,84,37,2
61.59333515167236,34,29,48,120,44,101,86,38,2
61.617416858673096,32,29,45,124,43,97,85,42,2
61.6381995677948,32,28,46,122,45,77,68,45,2
61.653282165527344,33,29,44,127,46,72,63,42,2
61.675158977508545,33,27,43,115,43,75,63,42,2
61.69823503494263,32,25,38,104,40,75,63,40,2
61.71316075325012,30,25,44,97,39,73,60,36,2
61.7356915473938,32,23,48,127,44,72,61,32,2
61.75841426849365,32,24,45,121,40,95,84,37,2
61.77247714996338,32,26,44,122,41,96,86,37,2
61.795897245407104,34,27,42,116,41,97,86,37,2
61.818421602249146,34,25,57,147,41,98,85,38,2
61.83257746696472,32,27,54,126,36,107,87,35,2
61.855706214904785,34,26,56,126,40,90,75,32,2
61.87830567359924,37,22,58,131,41,85,73,34,2
61.89250469207764,34,22,60,136,43,85,79,37,2
61.91525936126709,35,22,44,109,40,85,78,38,2
61.93887996673584,35,21,49,109,41,94,83,43,2
61.952457427978516,32,18,46,106,37,89,84,45,2
61.97567629814148,31,19,44,102,36,90,83,45,2
61.998642921447754,31,18,43,94,34,89,78,41,2
62.01278114318848,31,23,36,64,37,90,82,39,2
62.03571629524231,35,25,31,74,35,106,100,37,2
62.05837798118591,34,29,32,73,35,101,90,33,2
62.07243204116821,34,29,33,70,34,100,89,34,2
62.09717345237732,34,31,35,74,33,102,90,34,2
62.11823797225952,37,27,38,72,31,125,107,35,2
62.132481813430786,33,27,38,87,40,98,85,32,2
62.15563607215881,38,24,39,102,40,98,83,29,2
62.17847037315369,37,25,47,109,43,101,94,28,2
62.192172050476074,39,26,43,105,42,117,109,31,2
62.21569466590881,36,26,43,110,42,99,102,31,2
62.23825287818909,35,27,43,88,39,91,96,32,2
62.25261831283569,31,28,46,86,46,94,99,34,2
62.27561020851135,33,27,42,81,45,90,92,34,2
62.297696590423584,34,26,46,84,48,95,92,33,2
62.320881366729736,32,28,50,99,52,88,82,37,2
62.33565950393677,35,27,49,101,51,90,84,35,2
62.3583025932312,36,31,54,99,44,86,80,37,2
62.37983250617981,35,33,50,99,45,90,79,37,2
62.39808702468872,36,33,47,97,42,75,62,36,2
62.41766023635864,41,31,48,85,36,75,57,33,2
62.43991684913635,39,32,50,105,37,73,55,35,2
62.45680332183838,40,27,45,111,42,79,63,34,2
62.47740197181702,41,23,46,114,45,90,72,35,2
62.500120639801025,37,25,46,119,46,77,68,33,2
62.51698064804077,33,26,43,113,46,77,68,33,2
62.54491877555847,35,23,38,94,42,77,72,33,2
62.56113862991333,35,26,32,75,37,110,85,33,2
62.576821088790894,37,27,39,87,31,103,76,32,2
62.597453594207764,37,26,46,113,33,103,76,34,2
62.62006878852844,37,26,49,125,37,103,76,33,2
62.63811540603638,34,28,49,123,37,101,70,31,2
62.657517194747925,32,27,49,124,37,66,53,29,2
62.679994344711304,29,32,55,130,42,80,77,30,2
62.696784257888794,29,32,54,122,42,79,76,30,2
62.71773624420166,29,33,49,118,42,79,81,29,2
62.73994517326355,30,31,49,118,41,88,86,30,2
62.758578062057495,29,29,50,126,43,92,87,33,2
62.77736854553223,33,24,48,138,41,82,70,35,2
62.800129652023315,33,24,48,128,38,81,70,35,2
62.81678080558777,30,25,49,121,38,80,68,35,2
62.837560176849365,31,28,52,122,38,72,62,38,2
62.86024260520935,33,30,56,117,44,87,69,39,2
62.87697649002075,33,30,52,99,42,83,69,38,2
62.8978910446167,35,30,52,110,42,84,70,38,2
62.920146226882935,35,26,55,125,43,83,66,40,2
62.93663144111633,38,23,53,127,44,84,65,37,2
62.957531452178955,38,21,52,130,37,96,83,33,2
62.97996807098389,36,21,47,117,38,106,91,31,2
62.99607062339783,36,21,45,118,39,108,93,30,2
63.017881870269775,38,21,45,109,40,109,96,32,2
63.04005193710327,36,22,45,116,42,113,98,33,2
63.056626081466675,34,24,45,110,44,81,75,36,2
63.077739238739014,33,25,44,106,45,86,69,35,2
63.10015273094177,32,24,50,103,47,86,66,34,2
63.116907835006714,31,24,49,109,42,91,71,31,2
63.13770890235901,30,25,49,108,41,86,68,29,2
63.16000437736511,31,27,55,137,45,84,63,25,2
63.176934242248535,34,28,58,152,47,80,69,28,2
63.197532415390015,36,30,57,146,44,103,94,28,2
63.21996736526489,35,31,54,137,45,102,91,26,2
63.23671746253967,40,34,55,130,44,101,92,27,2
63.257423877716064,41,30,45,106,41,105,98,28,2
63.27998375892639,40,28,47,102,41,90,85,28,2
63.302542209625244,38,27,40,109,45,91,83,30,2
63.31802177429199,39,27,44,115,46,91,85,32,2
63.340677976608276,35,23,45,122,47,92,90,31,2
63.36260795593262,35,23,43,115,47,87,84,32,2
63.37693738937378,37,27,42,116,43,87,83,30,2
63.40013670921326,36,27,42,103,41,55,57,28,2
63.422521114349365,34,26,37,96,40,94,79,28,2
63.43756103515625,35,26,36,94,42,98,80,32,2
63.45977807044983,33,27,37,96,51,99,81,35,2
63.48530721664429,30,23,35,73,50,101,80,35,2
63.49758291244507,33,22,36,85,48,104,87,35,2
63.5201370716095,32,23,38,90,48,64,62,33,2
63.54446291923523,32,23,40,85,47,57,52,30,2
63.55936598777771,34,22,45,99,34,81,77,25,2
63.58128333091736,33,23,47,102,32,83,83,26,2
63.602588176727295,36,28,45,103,32,79,82,27,2
63.62027096748352,35,27,47,124,31,80,84,26,2
63.639934062957764,34,28,49,128,34,79,85,26,2
63.662877321243286,37,28,44,115,34,79,77,33,2
63.679574728012085,39,27,42,122,34,81,77,36,2
63.70127606391907,36,23,44,122,37,78,72,37,2
63.72278022766113,35,24,43,99,37,76,67,39,2
63.740243911743164,34,23,37,98,34,78,70,39,2
63.75990605354309,33,27,40,100,35,81,79,35,2
63.78283381462097,35,26,39,105,35,82,84,32,2
63.79963994026184,34,29,39,96,36,83,84,34,2
63.81994128227234,35,29,41,99,39,84,86,36,2
63.842530727386475,38,30,42,97,37,83,82,37,2
63.85932207107544,36,29,41,95,41,58,61,35,2
63.879481077194214,32,30,43,93,42,73,75,37,2
63.9025776386261,33,29,43,94,44,78,83,36,2
63.91938519477844,35,28,45,112,42,78,84,38,2
63.94030404090881,32,27,48,108,43,79,90,38,2
63.96248769760132,33,24,47,110,38,103,104,40,2
63.98011493682861,38,24,47,114,40,90,88,38,2
63.99965047836304,39,22,48,124,39,87,81,37,2
64.02251935005188,36,19,43,111,44,88,80,32,2
64.04026913642883,36,21,45,118,43,89,79,32,2
64.06018400192261,36,21,48,121,44,85,80,37,2
64.08266186714172,32,21,45,116,46,85,79,36,2
64.10166025161743,31,25,47,108,46,87,81,34,2
64.12052011489868,34,27,46,112,40,89,86,34,2
64.14247035980225,37,27,41,104,40,101,91,34,2
64.1609399318695,33,28,39,97,37,80,71,26,2
64.17986869812012,32,28,39,111,34,78,70,29,2
64.20249247550964,34,28,33,123,35,77,72,29,2
64.21932482719421,32,26,36,120,37,78,74,29,2
64.24003720283508,28,25,36,122,39,84,74,28,2
64.26300168037415,33,24,38,133,42,81,74,28,2
64.28507900238037,33,23,41,121,40,81,76,29,2
64.30054306983948,33,22,49,127,40,79,71,29,2
64.32252073287964,32,24,47,117,40,93,75,29,2
64.34487867355347,33,24,48,119,40,75,67,29,2
64.36010336875916,32,26,52,128,39,75,66,30,2
64.3825626373291,37,26,52,132,50,80,74,31,2
64.40546298027039,36,24,44,113,49,81,75,35,2
64.4200267791748,36,27,44,114,47,97,88,36,2
64.44254779815674,36,27,43,116,47,96,85,34,2
64.46478581428528,37,27,43,117,48,98,92,34,2
64.48046040534973,32,28,42,120,40,96,89,34,2
64.50259184837341,31,29,41,120,37,94,86,33,2
64.52504706382751,35,23,42,120,36,56,61,33,2
64.54003429412842,36,25,41,113,41,54,60,33,2
64.56445598602295,38,26,47,123,52,80,68,37,2
64.593496799469,38,27,47,118,51,85,69,35,2
64.60034418106079,39,27,46,116,51,90,71,31,2
64.62255501747131,37,28,49,126,51,91,71,31,2
64.64507031440735,35,27,51,143,53,93,72,35,2
64.6603193283081,32,25,42,122,42,91,69,32,2
64.68263459205627,32,22,45,119,44,87,64,32,2
64.70517873764038,30,22,46,124,47,83,65,32,2
64.72044110298157,32,23,53,128,48,85,67,31,2
64.74252557754517,37,24,57,139,46,87,72,32,2
64.76549887657166,36,24,55,133,44,87,77,32,2
64.77999591827393,36,24,55,131,44,86,77,31,2
64.80253171920776,36,24,54,136,42,85,75,30,2
64.82499384880066,38,22,43,128,40,79,74,30,2
64.84003710746765,35,21,40,102,38,73,69,27,2
64.86259508132935,35,23,40,107,39,48,50,27,2
64.88500642776489,36,23,33,100,35,54,53,30,2
64.90048670768738,36,24,38,106,36,81,67,30,2
64.92215752601624,33,25,42,101,40,88,67,30,2
64.94558072090149,30,28,40,94,38,90,67,30,2
64.95986676216125,30,26,42,90,40,86,61,28,2
64.98251008987427,31,26,45,99,40,88,66,27,2
65.00512480735779,35,28,48,113,42,88,70,31,2
65.02005577087402,34,28,46,119,42,85,72,32,2
65.04277110099792,34,24,45,120,41,84,73,31,2
65.06508302688599,36,23,44,128,40,85,74,33,2
65.08003783226013,34,27,45,128,45,85,75,34,2
65.10305285453796,33,25,40,110,43,56,56,32,2
65.12523555755615,33,25,36,99,39,51,52,33,2
65.14004039764404,34,28,38,115,43,77,66,31,2
65.1625463962555,34,30,37,119,42,86,77,31,2
65.18530321121216,35,26,43,137,41,80,70,35,2
65.20778393745422,36,27,40,135,43,82,71,34,2
65.22250962257385,35,27,42,136,45,82,70,35,2
65.24501657485962,36,23,40,131,42,80,69,35,2
65.26766538619995,35,23,41,121,41,90,70,35,2
65.28312516212463,36,23,40,110,44,88,68,31,2
65.30471706390381,35,25,44,103,42,90,70,32,2
65.32881236076355,36,24,43,107,40,103,77,29,2
65.34251546859741,34,26,47,116,50,103,81,33,2
65.36490774154663,33,25,48,126,53,89,75,32,2
65.38763070106506,30,25,41,112,47,91,76,34,2
65.40254735946655,29,21,38,116,48,95,81,32,2
65.42491269111633,29,21,37,115,48,100,85,35,2
65.44776463508606,30,21,34,101,38,86,72,33,2
65.46216797828674,30,23,37,101,40,83,68,32,2
65.48590207099915,31,23,40,123,41,81,68,30,2
65.50752258300781,30,25,42,123,41,81,65,34,2
65.52264022827148,29,27,46,119,41,89,69,31,2
65.55387711524963,29,27,48,122,41,89,70,29,2
65.56808352470398,30,27,48,134,37,93,73,32,2
65.58249831199646,32,27,46,117,34,95,74,32,2
65.60513663291931,33,25,43,111,34,91,68,27,2
65.62746405601501,35,23,40,111,34,77,58,32,2
65.64363098144531,37,22,41,129,35,80,59,32,2
65.66524887084961,37,22,41,109,37,76,57,29,2
65.68763828277588,36,22,44,111,39,82,60,30,2
65.70264649391174,36,23,54,132,44,93,71,34,2
65.72459673881531,33,27,61,144,44,82,68,30,2
65.74767756462097,31,30,59,122,45,79,78,34,2
65.76269149780273,31,29,56,117,43,79,75,37,2
65.78509616851807,30,31,54,112,42,70,72,36,2
65.80754351615906,30,32,51,119,40,102,94,38,2
65.82252526283264,35,28,44,115,37,103,94,38,2
65.84504842758179,36,26,44,117,39,104,88,36,2
65.8675606250763,36,27,49,124,45,103,89,35,2
65.88305020332336,39,26,50,139,46,105,90,36,2
65.90515208244324,37,24,49,143,43,75,64,30,2
65.9276134967804,33,23,46,140,44,72,64,30,2
65.95006370544434,31,22,45,137,40,68,58,27,2
65.96457862854004,29,23,43,150,35,70,59,27,2
65.98845410346985,29,23,52,178,50,72,70,28,2
66.00268745422363,31,24,49,158,50,55,62,30,2
66.02513599395752,31,26,49,153,52,83,74,29,2
66.04765677452087,32,25,47,155,53,85,74,31,2
66.0627212524414,32,27,52,162,55,87,91,30,2
66.08522510528564,31,24,49,137,45,90,88,28,2
66.10759210586548,28,23,48,142,46,88,88,27,2
66.13027548789978,31,24,49,141,44,57,77,30,2
66.14546751976013,31,25,59,157,48,75,85,29,2
66.16798043251038,31,26,53,140,45,77,81,29,2
66.19016575813293,29,26,45,118,39,82,82,29,2
66.20507311820984,33,29,47,109,37,83,82,31,2
66.22752165794373,31,30,46,116,37,85,85,30,2
66.25009226799011,31,30,48,113,31,90,88,30,2
66.26540398597717,32,26,50,104,31,87,77,29,2
66.28751230239868,34,27,54,112,37,76,69,28,2
66.31015825271606,31,26,57,119,41,78,75,30,2
66.32577753067017,34,23,56,112,41,78,69,28,2
66.34808015823364,30,23,53,116,45,56,56,28,2
66.37020659446716,30,25,54,117,45,65,61,29,2
66.38502955436707,33,24,52,124,41,78,69,30,2
66.4078357219696,34,29,55,141,44,77,66,28,2
66.43018245697021,30,31,55,148,44,77,69,30,2
66.44500875473022,30,34,52,139,44,77,70,31,2
66.46768283843994,29,33,50,146,48,67,73,33,2
66.49045920372009,23,34,51,148,52,69,75,33,2
66.5046877861023,21,28,42,128,46,68,72,33,2
66.52715516090393,25,30,44,121,47,67,73,33,2
66.55125164985657,27,29,38,117,45,75,78,33,2
66.56509900093079,31,30,36,119,44,100,85,34,2
66.58769607543945,34,30,35,108,43,91,76,35,2
66.61203956604004,35,29,36,112,42,91,77,35,2
66.62462663650513,35,26,40,111,45,95,79,37,2
66.64845395088196,36,29,41,122,47,100,81,37,2
66.67014908790588,33,30,42,117,44,79,64,35,2
66.6850950717926,33,29,41,114,41,76,61,34,2
66.70768213272095,32,29,41,117,41,78,64,34,2
66.73023796081543,31,28,42,128,39,74,59,34,2
66.74531292915344,31,27,44,115,39,52,51,41,2
66.76859045028687,30,24,42,102,38,49,55,43,2
66.79035234451294,29,26,61,167,44,79,70,45,2
66.80573415756226,30,26,60,176,47,80,69,44,2
66.82759237289429,33,30,59,169,48,83,71,41,2
66.85109782218933,30,26,60,167,45,84,68,36,2
66.86494183540344,28,26,60,173,47,82,64,33,2
66.88770842552185,30,28,44,113,40,54,49,34,2
66.91021823883057,29,32,44,90,35,72,69,37,2
66.92542719841003,27,29,42,88,39,76,82,39,2
66.94773268699646,34,30,37,84,40,77,83,39,2
66.97036123275757,35,31,39,115,40,78,84,41,2
66.98620772361755,35,28,34,111,43,78,84,39,2
67.00776243209839,35,25,31,114,46,62,73,37,2
67.03017735481262,36,25,32,114,40,69,57,35,2
67.04541397094727,31,24,43,143,42,69,57,30,2
67.06762504577637,31,24,43,117,45,69,55,26,2
67.09024548530579,30,25,46,119,43,72,59,27,2
67.11337041854858,30,25,47,114,41,68,52,29,2
67.12804555892944,33,24,57,155,44,56,54,32,2
67.15030479431152,34,25,52,135,45,86,72,32,2
67.17375612258911,34,23,51,134,44,90,75,32,2
67.18804383277893,36,23,50,133,43,88,71,30,2
67.21019172668457,36,25,57,175,43,88,72,34,2
67.23398756980896,34,26,47,141,39,85,68,33,2
67.24783277511597,34,29,48,138,38,62,65,32,2
67.27039527893066,34,29,50,146,43,79,84,37,2
67.29264879226685,31,32,53,155,47,82,86,42,2
67.30756187438965,32,30,49,125,45,82,85,39,2
67.33013033866882,31,29,52,124,46,85,85,38,2
67.35380363464355,30,30,51,132,53,80,74,38,2
67.36790680885315,29,30,49,124,47,55,46,34,2
67.3909924030304,29,27,47,117,43,58,50,30,2
67.41382026672363,30,27,45,113,45,79,63,28,2
67.42790031433105,30,33,40,119,53,84,70,28,2
67.44977188110352,34,29,40,118,43,86,71,31,2
67.4810140132904,34,31,42,118,43,86,71,33,2
67.49671983718872,34,32,43,114,46,79,67,30,2
67.51025772094727,31,31,39,104,47,58,54,31,2
67.53257346153259,33,28,45,129,46,78,65,32,2
67.54760313034058,28,27,43,131,48,79,67,31,2
67.57024908065796,28,24,41,128,49,84,69,29,2
67.59262132644653,27,24,41,132,47,88,70,30,2
67.6078782081604,27,24,46,141,46,92,79,31,2
67.63018894195557,29,22,40,105,38,65,63,27,2
67.65277433395386,32,27,43,95,38,113,98,34,2
67.66781783103943,31,28,44,100,36,111,99,35,2
67.69015097618103,34,29,57,160,45,114,102,35,2
67.71257972717285,35,28,56,161,45,113,100,34,2
67.72767233848572,33,28,58,164,45,114,100,35,2
67.75023627281189,33,25,56,170,45,68,66,35,2
67.77212047576904,34,23,60,174,47,91,87,35,2
67.78759860992432,34,22,46,117,41,88,82,35,2
67.81028461456299,32,22,45,100,40,85,78,35,2
67.83298993110657,35,22,42,98,42,89,84,38,2
67.84797358512878,34,24,44,92,43,95,91,33,2
67.87047290802002,33,26,37,99,43,91,79,31,2
67.89267659187317,30,26,39,108,42,91,83,32,2
67.90793824195862,31,28,36,110,45,90,81,33,2
67.93053817749023,28,28,36,116,42,90,82,32,2
67.95240616798401,27,26,31,122,39,80,70,32,2
67.96771335601807,25,26,36,115,43,58,58,31,2
67.99017286300659,28,25,34,106,44,61,63,33,2
68.01254963874817,33,24,35,102,39,87,85,30,2
68.0361270904541,35,25,44,133,45,88,80,28,2
68.05034279823303,35,24,45,134,50,88,79,27,2
68.07268333435059,37,22,41,129,56,106,93,33,2
68.09579467773438,34,24,40,133,54,107,92,30,2
68.11021208763123,29,23,46,154,59,88,77,33,2
68.13265466690063,26,21,40,136,57,82,75,32,2
68.15689468383789,27,23,44,130,56,85,77,30,2
68.17026042938232,26,23,48,126,46,101,91,31,2
68.19482421875,30,21,52,138,45,102,91,33,2
68.21590232849121,30,22,47,119,44,101,90,31,2
68.23018407821655,29,21,54,117,41,101,89,34,2
68.25292110443115,31,19,51,139,38,111,97,36,2
68.275808095932,30,20,51,145,37,81,73,33,2
68.29026007652283,28,22,51,135,40,76,71,32,2
68.31265020370483,30,24,52,132,36,79,71,33,2
68.33541417121887,33,26,48,130,46,82,73,31,2
68.35055351257324,40,28,48,117,45,90,78,29,2
68.37265634536743,40,30,45,108,49,88,83,29,2
68.39573407173157,42,28,45,115,47,87,79,29,2
68.41047596931458,41,26,46,115,47,83,77,29,2
68.43283653259277,40,25,41,108,41,88,78,33,2
68.45588231086731,33,24,42,111,42,90,74,38,2
68.4702205657959,32,23,43,120,38,90,64,37,2
68.49266695976257,27,25,42,118,38,91,68,37,2
68.51585793495178,28,29,40,118,39,92,69,38,2
68.53024959564209,31,30,41,117,38,91,72,36,2
68.55313730239868,30,29,38,97,45,85,71,31,2
68.57583451271057,31,33,37,87,48,83,69,33,2
68.59031677246094,35,32,34,76,47,83,65,32,2
68.61323237419128,35,29,48,109,47,83,64,29,2
68.63628602027893,31,28,46,104,45,73,54,28,2
68.6502296924591,31,30,48,109,45,105,91,28,2
68.67261457443237,32,27,50,109,46,111,101,27,2
68.69588899612427,28,27,64,150,50,109,101,28,2
68.71016097068787,26,27,56,131,52,113,105,29,2
68.7327492237091,29,27,59,143,54,117,110,29,2
68.75591897964478,30,28,58,140,48,124,104,32,2
68.77046823501587,30,26,56,140,47,119,94,34,2
68.7927873134613,32,29,39,92,44,121,94,34,2
68.81582140922546,37,28,36,98,42,120,92,33,2
68.83025217056274,38,30,37,82,40,116,90,33,2
68.85276365280151,41,30,34,75,39,75,80,32,2
68.8758773803711,40,30,44,100,34,72,79,30,2
68.89073729515076,44,31,49,106,35,79,91,28,2
68.9126181602478,42,31,51,100,39,80,89,28,2
68.93590235710144,42,28,50,99,38,88,97,31,2
68.9513509273529,40,29,54,120,38,92,86,31,2
68.97363424301147,41,29,51,118,43,98,91,29,2
68.99652910232544,39,28,61,147,41,93,80,31,2
69.01855254173279,41,27,59,147,37,91,82,35,2
69.0329818725586,38,27,57,152,35,84,73,34,2
69.05591869354248,38,25,57,152,44,101,81,34,2
69.0785448551178,38,25,52,140,38,99,79,37,2
69.09278130531311,34,24,37,106,38,99,80,38,2
69.11585903167725,34,26,44,130,40,100,81,38,2
69.13864231109619,36,24,46,133,40,105,81,39,2
69.1529278755188,36,22,40,117,32,92,79,39,2
69.17627596855164,36,24,44,117,34,87,74,37,2
69.19858479499817,37,24,52,124,40,89,77,35,2
69.212655544281,35,27,50,105,44,92,82,32,2
69.23615670204163,34,28,49,95,45,104,89,28,2
69.2584502696991,32,29,53,99,44,87,75,30,2
69.27286386489868,32,27,52,111,45,89,76,29,2
69.29592418670654,31,28,48,110,42,93,85,31,2
69.31824612617493,28,28,44,106,36,91,80,33,2
69.33272099494934,25,28,44,105,40,91,76,36,2
69.35591983795166,26,28,47,113,46,90,74,34,2
69.37900447845459,25,32,47,108,46,94,79,35,2
69.3926784992218,25,33,49,112,47,88,71,33,2
69.42456769943237,27,29,49,126,56,83,65,30,2
69.43882155418396,28,34,58,139,58,61,58,29,2
69.45291185379028,29,33,53,127,56,91,80,27,2
69.4762647151947,33,30,58,144,55,95,79,27,2
69.49842023849487,32,28,56,146,56,95,75,28,2
69.51263809204102,33,29,59,136,51,96,76,28,2
69.53634548187256,34,26,52,129,49,114,92,28,2
69.55841183662415,34,25,55,138,45,91,78,29,2
69.57270169258118,33,27,50,118,46,89,81,35,2
69.59611439704895,34,31,50,104,45,93,90,38,2
69.61904859542847,35,31,47,95,41,93,91,39,2
69.63236784934998,36,30,55,145,41,85,85,38,2
69.65552473068237,34,31,54,155,45,91,84,40,2
69.6783754825592,33,31,52,150,48,84,82,36,2
69.69319653511047,31,27,49,149,44,77,78,36,2
69.71592855453491,28,26,46,148,43,80,83,35,2
69.73839116096497,24,23,36,104,42,94,88,36,2
69.75271034240723,26,26,36,85,40,86,85,36,2
69.77600598335266,25,24,35,93,38,87,80,34,2
69.7985737323761,27,23,37,104,45,89,75,30,2
69.8126277923584,29,24,46,136,50,87,73,28,2
69.8360664844513,36,24,44,132,52,99,90,32,2
69.85806965827942,34,21,44,133,52,105,92,35,2
69.87235283851624,36,22,45,126,51,107,94,35,2
69.89603209495544,36,27,44,118,47,108,94,37,2
69.91865849494934,37,26,40,111,45,120,99,38,2
69.94091701507568,32,29,41,111,42,89,69,34,2
69.95614433288574,36,28,39,102,41,99,77,28,2
69.97785305976868,34,29,42,113,42,96,76,30,2
70.00108480453491,34,25,49,128,49,100,80,30,2
70.01596140861511,35,26,46,108,47,90,75,30,2
70.03855729103088,35,22,50,108,48,90,77,29,2
70.06100702285767,34,23,49,119,50,108,94,32,2
70.0758593082428,36,23,52,122,49,109,93,31,2
70.09859991073608,36,22,48,130,42,103,89,31,2
70.12106776237488,35,20,50,129,43,98,89,34,2
70.13636422157288,35,22,52,131,43,106,101,34,2
70.15863060951233,35,23,52,139,41,75,83,34,2
70.18081951141357,37,27,52,133,45,77,89,36,2
70.19585609436035,37,27,50,118,49,77,88,35,2
70.2188868522644,36,27,48,127,50,77,85,35,2
70.24094939231873,35,28,44,125,50,84,79,37,2
70.25589346885681,37,28,42,105,49,81,72,38,2
70.27845001220703,33,25,37,105,47,81,68,36,2
70.30090117454529,31,25,39,102,41,83,69,36,2
70.31518363952637,32,30,50,99,44,85,68,36,2
70.33871507644653,36,31,48,101,43,62,52,36,2
70.36091470718384,36,32,50,109,44,56,53,33,2
70.37529277801514,36,32,50,107,42,93,66,32,2
70.39843893051147,38,34,57,139,48,96,66,31,2
70.42095828056335,39,29,49,131,46,95,64,28,2
70.43535327911377,35,29,50,126,46,95,65,29,2
70.4583625793457,33,27,49,119,47,105,72,31,2
70.48239612579346,34,27,49,133,47,78,62,31,2
70.49537348747253,32,26,45,110,43,74,61,33,2
70.51868629455566,30,27,42,107,39,70,62,33,2
70.54098224639893,30,25,44,108,37,70,61,30,2
70.55556511878967,31,28,45,127,33,61,59,29,2
70.57844471931458,31,29,47,112,35,77,68,33,2
70.60118436813354,33,31,45,100,38,77,68,34,2
70.61530709266663,37,32,50,128,42,79,70,36,2
70.63873505592346,37,31,47,132,42,78,71,37,2
70.6609034538269,38,29,49,124,46,79,69,37,2
70.67520141601562,38,28,46,123,51,78,69,35,2
70.69849872589111,37,26,51,154,52,83,68,33,2
70.72096800804138,33,26,47,137,51,89,79,30,2
70.73540949821472,39,28,50,138,51,90,82,33,2
70.75928997993469,39,28,47,128,49,90,78,32,2
70.78107452392578,37,28,50,135,44,87,80,33,2
70.7954032421112,37,31,43,114,45,83,81,35,2
70.8184027671814,36,30,46,124,49,86,78,35,2
70.84147047996521,31,29,44,118,53,85,76,31,2
70.85544204711914,29,29,43,122,52,104,91,33,2
70.87847256660461,28,28,40,116,52,90,78,33,2
70.90146851539612,30,24,39,109,47,88,76,34,2
70.922842502594,32,23,39,107,45,85,73,34,2
70.93840217590332,29,21,39,116,40,84,71,36,2
70.96148633956909,30,22,39,114,42,59,53,37,2
70.9834132194519,30,21,42,113,48,86,74,39,2
70.99866914749146,31,20,47,123,49,92,76,39,2
71.02126955986023,29,22,46,139,54,90,78,38,2
71.04345440864563,31,22,47,131,53,90,78,39,2
71.05845904350281,33,24,48,141,56,104,90,41,2
71.08134603500366,34,24,56,147,57,102,91,39,2
71.10369443893433,32,29,51,130,55,100,93,39,2
71.11869978904724,35,29,48,104,48,97,88,39,2
71.14051747322083,39,30,53,122,54,96,88,36,2
71.16346979141235,38,27,57,126,51,84,79,31,2
71.17874431610107,39,28,50,118,44,103,86,33,2
71.20066785812378,38,27,52,116,47,107,86,31,2
71.22341108322144,36,26,53,127,46,108,87,33,2
71.23798680305481,33,26,48,114,47,109,90,34,2
71.26126027107239,33,29,43,108,45,113,96,34,2
71.28356337547302,36,29,40,108,48,89,85,29,2
71.29732513427734,38,33,50,145,56,99,92,32,2
71.32047986984253,36,33,49,142,54,100,92,30,2
71.34395432472229,38,34,48,148,50,105,92,32,2
71.35746550559998,37,33,47,138,49,97,83,32,2
71.38051629066467,35,33,51,144,47,86,74,33,2
71.40377950668335,33,27,39,111,36,90,77,32,2
71.41754841804504,34,27,38,104,42,100,90,34,2
