,time,chanel1,chanel2,chanel3,chanel4,chanel5,chanel6,chanel7,chanel8,position
0,12.170349597930908,57,72,88,121,33,34,61,32,1
1,12.193714380264282,55,73,80,152,35,36,59,34,1
2,12.215991497039795,65,89,108,187,45,42,76,36,1
3,12.230910539627075,59,86,101,181,43,38,70,37,1
4,12.25287652015686,60,86,112,195,45,39,71,36,1
5,12.277256727218628,67,94,112,196,46,38,73,42,1
6,12.290998935699463,82,116,182,185,51,44,90,42,1
7,12.313291549682617,77,106,190,178,44,40,86,39,1
8,12.335943698883057,76,105,191,178,44,40,86,38,1
9,12.3508620262146,75,106,186,181,41,39,82,38,1
10,12.3734290599823,70,101,188,210,43,41,82,30,1
11,12.395859241485596,67,89,162,250,40,40,83,27,1
12,12.636099576950073,62,83,101,107,35,35,66,28,1
13,12.658897638320923,57,82,106,125,35,36,63,26,1
14,12.673444747924805,60,87,106,108,31,33,58,30,1
15,12.695939302444458,56,84,101,101,30,33,51,30,1
16,12.718531131744385,49,67,92,101,29,32,50,31,1
17,12.733603239059448,56,75,94,111,31,33,52,32,1
18,12.755867004394531,56,71,87,92,30,31,50,33,1
19,12.778776168823242,50,58,69,75,33,30,49,31,1
20,12.793729543685913,66,85,102,89,35,32,56,38,1
21,12.815972805023193,62,90,122,143,38,34,58,38,1
22,12.838570356369019,55,86,119,144,34,33,64,37,1
23,12.853629350662231,60,92,121,144,36,34,68,38,1
24,12.876077890396118,62,93,122,148,34,35,69,38,1
25,12.898486852645874,54,75,99,152,31,36,65,32,1
26,12.913405418395996,63,79,107,135,33,34,62,31,1
27,12.936389446258545,64,76,100,124,32,34,50,28,1
28,12.958362102508545,66,71,99,130,32,35,51,30,1
29,12.9734525680542,66,73,98,137,33,34,51,30,1
30,12.99596619606018,61,68,98,133,36,32,53,29,1
31,13.018579006195068,59,66,73,106,34,36,57,35,1
32,13.033440113067627,62,75,88,121,41,36,65,38,1
33,13.055867910385132,57,73,88,119,41,35,63,36,1
34,13.07914686203003,62,78,95,111,41,34,63,35,1
35,13.09298300743103,62,81,94,123,39,36,63,36,1
36,13.115989923477173,58,78,90,129,34,32,57,32,1
37,13.138482570648193,53,69,75,114,28,31,47,30,1
38,13.153511047363281,52,70,79,108,27,29,44,29,1
39,13.176093101501465,45,63,75,105,26,30,44,27,1
40,13.198467493057251,46,62,76,82,26,33,43,29,1
41,13.213873624801636,41,60,73,74,30,33,50,26,1
42,13.235885858535767,54,73,86,80,32,34,53,30,1
43,13.259007930755615,53,70,83,117,36,38,55,32,1
44,13.273404836654663,52,70,82,120,36,38,58,32,1
45,13.296604871749878,54,73,84,119,36,36,58,32,1
46,13.318450689315796,57,73,87,116,33,36,52,33,1
47,13.340942144393921,45,64,75,114,30,35,51,29,1
48,13.355941772460938,49,70,79,85,27,31,53,28,1
49,13.378989934921265,48,67,76,95,27,31,47,28,1
50,13.401400566101074,48,63,81,122,35,32,51,26,1
51,13.415974855422974,52,63,82,130,36,30,52,29,1
52,13.43857216835022,52,62,83,129,35,32,53,29,1
53,13.46157431602478,51,61,83,140,36,34,53,30,1
54,13.476247072219849,55,68,92,137,38,37,57,30,1
55,13.498546361923218,60,76,103,123,32,39,60,33,1
56,13.520904064178467,54,73,105,115,33,38,59,30,1
57,13.536216020584106,53,70,106,115,34,37,55,30,1
58,13.558640956878662,54,67,103,97,33,38,60,33,1
59,13.580952882766724,52,70,111,115,32,35,58,36,1
60,13.595978736877441,53,72,109,110,33,31,55,36,1
61,13.618565320968628,50,70,106,106,34,32,56,39,1
62,13.64156460762024,55,76,109,112,36,30,62,38,1
63,13.655927181243896,54,76,112,122,38,29,58,34,1
64,13.678944110870361,51,66,96,95,37,32,59,32,1
65,13.700935125350952,40,51,79,89,34,30,55,32,1
66,13.715932369232178,41,53,70,109,34,30,56,30,1
67,13.738524436950684,38,47,63,108,31,30,50,32,1
68,13.760978937149048,36,42,54,94,28,28,46,34,1
69,13.775903940200806,41,49,60,106,31,27,44,34,1
70,13.798872947692871,43,50,62,115,31,28,42,32,1
71,13.820847988128662,47,54,64,98,31,28,40,31,1
72,13.835940599441528,55,67,79,110,33,31,51,34,1
73,13.858745813369751,55,67,82,120,34,31,50,33,1
74,13.880661487579346,62,75,91,118,37,35,55,33,1
75,13.895559072494507,64,79,95,115,40,36,57,32,1
76,13.9184889793396,59,74,94,124,39,35,59,33,1
77,13.941396474838257,50,61,81,111,35,33,50,28,1
78,13.955954551696777,61,74,87,101,37,35,58,32,1
79,13.978825092315674,54,66,79,101,32,29,52,33,1
80,14.00098967552185,50,63,73,113,29,29,57,34,1
81,14.015919208526611,54,70,81,103,30,31,56,33,1
82,14.038468360900879,54,70,83,104,31,31,60,35,1
83,14.061209201812744,43,60,77,103,29,32,54,35,1
84,14.07593822479248,45,65,79,129,28,34,63,34,1
85,14.09840703010559,44,63,78,123,28,32,59,34,1
86,14.120976448059082,42,59,69,121,28,33,60,34,1
87,14.135963678359985,52,77,88,133,31,35,65,34,1
88,14.158773183822632,56,81,97,149,33,35,70,33,1
89,14.180755853652954,57,78,99,126,35,34,60,33,1
90,14.195559024810791,57,78,96,114,34,36,58,33,1
91,14.218568086624146,54,75,98,120,34,34,54,30,1
92,14.241149663925171,48,58,81,107,32,32,49,30,1
93,14.264177560806274,48,61,79,87,34,32,48,28,1
94,14.278615474700928,46,62,75,87,34,36,54,28,1
95,14.309442281723022,47,64,81,91,33,32,56,27,1
96,14.32414174079895,48,63,82,81,34,35,57,33,1
97,14.338660478591919,52,72,92,86,36,35,57,32,1
98,14.361790657043457,49,67,92,129,34,36,59,33,1
99,14.384377479553223,50,68,89,130,30,33,56,33,1
100,14.398745059967041,52,69,88,127,32,37,59,35,1
101,14.42086672782898,52,69,90,140,33,36,58,31,1
102,14.445219039916992,47,58,80,149,29,36,62,31,1
103,14.458459854125977,43,57,68,111,30,32,54,29,1
104,14.480939626693726,40,53,67,110,33,34,57,29,1
105,14.504163980484009,40,52,73,145,34,33,59,28,1
106,14.51840353012085,44,54,70,134,32,32,57,26,1
107,14.54111123085022,43,56,74,122,36,31,50,28,1
108,14.564190149307251,52,58,76,134,35,32,53,29,1
109,14.578610897064209,52,57,76,130,32,30,48,33,1
110,14.600912809371948,57,63,80,103,35,31,46,33,1
111,14.624127626419067,54,63,85,138,36,31,46,34,1
112,14.638562440872192,54,61,80,139,32,33,53,32,1
113,14.661123991012573,51,67,92,133,37,35,60,32,1
114,14.684386491775513,52,67,97,143,38,35,63,30,1
115,14.698413133621216,44,61,87,134,31,36,63,31,1
116,14.720911979675293,51,69,89,95,31,38,74,34,1
117,14.744382381439209,50,70,88,89,34,35,70,35,1
118,14.758615493774414,46,60,77,81,28,35,65,33,1
119,14.781247615814209,47,60,72,65,25,33,63,31,1
120,14.804165124893188,45,59,76,69,28,31,59,34,1
121,14.81864595413208,41,50,70,100,28,30,53,30,1
122,14.840970277786255,44,52,74,101,27,31,55,29,1
123,14.864179849624634,40,51,71,106,25,27,54,30,1
124,14.878485441207886,40,54,84,118,29,28,57,30,1
125,14.900996923446655,40,54,84,122,27,28,60,27,1
126,14.92419719696045,40,60,90,117,27,27,52,26,1
127,14.938598394393921,38,56,90,125,29,29,52,27,1
128,14.9609854221344,42,55,92,118,29,28,52,27,1
129,14.98418140411377,38,51,78,112,30,28,48,28,1
130,14.998670101165771,39,51,72,106,34,27,45,29,1
131,15.020941495895386,42,49,69,95,33,28,47,30,1
132,15.044140100479126,45,56,80,93,29,26,48,28,1
133,15.058434247970581,55,67,91,107,35,33,58,29,1
134,15.080915451049805,62,71,91,100,33,34,59,32,1
135,15.104189157485962,65,69,90,100,31,34,63,34,1
136,15.119038343429565,64,67,83,93,33,34,66,34,1
137,15.141035318374634,70,74,81,93,36,36,67,37,1
138,15.164197444915771,62,66,74,114,33,32,64,38,1
139,15.178476810455322,55,61,77,127,32,31,66,36,1
140,15.200984954833984,53,68,90,131,33,32,65,33,1
141,15.224673986434937,51,70,96,144,33,31,61,32,1
142,15.246689796447754,37,60,89,142,32,29,57,32,1
143,15.260913372039795,37,61,82,124,31,28,50,31,1
144,15.284193515777588,36,59,76,113,30,26,47,28,1
145,15.306987285614014,35,49,61,107,29,25,43,27,1
146,15.32092547416687,34,44,50,91,30,24,42,26,1
147,15.34422516822815,40,44,46,111,26,25,45,24,1
148,15.366902589797974,44,44,50,102,27,27,50,24,1
149,15.380936622619629,48,51,52,102,28,28,47,27,1
150,15.404231309890747,51,52,62,122,27,26,48,29,1
151,15.426982641220093,60,60,76,138,28,27,50,30,1
152,15.440927267074585,57,59,77,121,28,25,49,31,1
153,15.464056253433228,58,62,80,135,28,24,48,30,1
154,15.486690521240234,60,61,83,140,27,25,50,29,1
155,15.50139307975769,68,75,103,144,32,30,57,32,1
156,15.524089097976685,64,72,98,136,28,29,59,31,1
157,15.54677700996399,66,75,106,148,33,34,61,32,1
158,15.561418056488037,63,69,108,136,33,34,61,33,1
159,15.584248065948486,61,68,111,141,34,33,62,33,1
160,15.606831312179565,50,56,94,127,31,34,59,29,1
161,15.620948076248169,56,64,108,157,34,35,59,31,1
162,15.643577814102173,52,64,104,150,34,34,58,32,1
163,15.667541265487671,52,68,101,149,35,37,56,33,1
164,15.681180477142334,50,71,105,142,35,35,53,33,1
165,15.704164505004883,52,69,107,161,34,33,50,32,1
166,15.726979494094849,42,58,90,129,33,32,49,34,1
167,15.741415023803711,42,54,84,119,28,29,43,30,1
168,15.764111042022705,42,54,90,128,27,25,45,28,1
169,15.786940813064575,44,58,87,134,32,29,58,31,1
170,15.800939321517944,41,60,85,105,32,28,60,35,1
171,15.824196815490723,40,62,90,101,31,27,58,32,1
172,15.846782684326172,40,61,91,107,31,29,62,33,1
173,15.860508680343628,43,58,83,93,30,28,60,32,1
174,15.88560438156128,45,61,82,86,25,27,53,31,1
175,15.906737327575684,45,58,75,101,26,27,52,27,1
176,15.920921087265015,48,57,70,103,27,30,53,28,1
177,15.9443998336792,51,59,76,118,27,32,56,28,1
178,15.96709656715393,50,57,74,129,26,32,57,28,1
179,15.980622053146362,44,45,69,125,27,31,55,25,1
180,16.00386071205139,46,49,68,132,28,35,59,24,1
181,16.027034997940063,43,47,68,128,29,34,59,25,1
182,16.040940046310425,47,54,73,120,37,35,59,27,1
183,16.064062356948853,54,58,77,119,39,37,59,31,1
184,16.08704900741577,57,59,72,116,42,40,63,34,1
185,16.10094976425171,54,58,75,91,44,38,57,36,1
186,16.124168872833252,55,64,98,118,46,42,60,36,1
187,16.146808385849,52,64,96,113,41,39,56,34,1
188,16.161099433898926,44,60,94,120,39,37,54,31,1
189,16.184146642684937,41,58,95,122,39,36,47,28,1
190,16.206754207611084,41,55,91,125,33,35,45,28,1
191,16.22902202606201,40,52,75,116,29,29,44,27,1
192,16.244158267974854,37,47,74,127,29,30,49,28,1
193,16.266988515853882,37,49,72,112,32,29,49,28,1
194,16.289134740829468,46,61,83,130,29,25,50,29,1
195,16.304441213607788,60,79,93,138,28,27,59,28,1
196,16.326905727386475,61,80,89,138,30,30,59,31,1
197,16.349506616592407,62,82,93,145,32,31,55,33,1
198,16.36406421661377,66,89,101,145,29,31,56,32,1
199,16.386646509170532,59,85,101,129,29,32,56,31,1
200,16.410492420196533,48,68,99,125,31,32,52,30,1
201,16.424602270126343,47,69,100,112,29,28,45,28,1
202,16.446754693984985,45,66,94,94,26,26,43,26,1
203,16.46912145614624,41,58,90,100,28,24,44,27,1
204,16.483842372894287,41,56,81,139,32,26,44,26,1
205,16.506707429885864,43,60,80,156,34,28,42,27,1
206,16.53010058403015,41,52,73,155,37,28,43,29,1
207,16.542898654937744,42,52,73,153,38,29,45,29,1
208,16.567744731903076,42,52,68,158,37,30,45,29,1
209,16.58903479576111,48,54,68,139,34,31,53,30,1
210,16.603511571884155,49,52,71,117,34,29,52,31,1
211,16.627127408981323,53,59,86,132,33,30,55,29,1
212,16.649138689041138,53,60,91,145,31,31,57,28,1
213,16.663545846939087,53,64,98,139,32,30,58,27,1
214,16.688026905059814,52,64,97,127,33,27,57,27,1
215,16.709455013275146,52,69,91,137,29,28,65,28,1
216,16.724608182907104,49,65,81,128,29,31,67,30,1
217,16.746814012527466,62,73,88,136,32,35,72,34,1
218,16.76926326751709,64,73,81,144,30,36,72,37,1
219,16.78351902961731,61,72,81,143,30,37,66,37,1
220,16.80721926689148,58,68,87,138,31,35,64,35,1
221,16.828745126724243,58,67,85,131,33,33,65,33,1
222,16.842876195907593,41,57,69,102,31,30,58,30,1
223,16.866199731826782,38,53,71,108,35,30,61,26,1
224,16.88912796974182,39,50,70,112,35,28,62,25,1
225,16.904733180999756,39,47,70,120,34,32,58,24,1
226,16.927189350128174,38,45,69,121,34,31,53,24,1
227,16.949413537979126,48,56,79,136,34,29,55,31,1
228,16.963168144226074,49,58,75,135,31,29,48,30,1
229,16.987072229385376,50,63,83,162,30,30,54,30,1
230,17.00911784172058,53,66,79,150,36,30,50,33,1
231,17.023480892181396,58,75,92,157,36,30,52,32,1
232,17.046693325042725,51,67,86,152,35,28,48,25,1
233,17.069217681884766,49,65,84,153,33,29,54,26,1
234,17.083391427993774,50,63,98,160,36,31,51,30,1
235,17.106719255447388,44,57,99,163,28,29,50,33,1
236,17.129172325134277,40,50,90,163,26,28,49,35,1
237,17.151347160339355,45,58,91,157,27,31,54,37,1
238,17.174107313156128,45,62,92,147,27,30,51,36,1
239,17.18917965888977,41,59,73,132,26,28,48,32,1
240,17.21165442466736,41,60,69,168,30,27,46,26,1
241,17.22681450843811,42,62,69,166,29,29,44,23,1
242,17.24945044517517,37,56,68,163,30,27,38,22,1
243,17.27170968055725,39,61,76,169,34,26,38,25,1
244,17.286672830581665,49,73,84,150,33,28,40,29,1
245,17.309420585632324,52,75,89,109,32,27,42,30,1
246,17.33201265335083,56,76,87,105,33,25,47,30,1
247,17.34598183631897,60,79,92,118,33,26,49,30,1
248,17.369192123413086,60,75,85,119,29,26,48,30,1
249,17.39198112487793,54,64,80,118,26,25,52,27,1
250,17.407074689865112,52,63,74,127,27,26,54,27,1
251,17.429094076156616,44,56,74,139,28,25,52,25,1
252,17.451900959014893,41,53,73,132,27,26,55,25,1
253,17.46588444709778,38,50,78,125,28,26,54,23,1
254,17.48913812637329,41,51,78,120,36,31,56,28,1
255,17.511273622512817,46,49,76,105,36,32,57,30,1
256,17.526376724243164,50,52,79,93,36,34,57,32,1
257,17.549356698989868,53,56,90,92,37,35,52,32,1
258,17.571654558181763,53,54,85,92,35,36,53,35,1
259,17.586228609085083,54,54,81,119,29,37,53,32,1
260,17.609253644943237,51,58,87,121,28,35,55,31,1
261,17.63306951522827,50,61,87,125,28,33,52,29,1
262,17.645957708358765,48,60,78,121,26,31,56,29,1
263,17.66913938522339,47,61,89,126,28,28,57,28,1
264,17.69200825691223,49,62,91,118,29,26,50,27,1
265,17.705804586410522,47,58,91,127,28,27,46,27,1
266,17.7291579246521,47,56,89,116,29,29,49,27,1
267,17.75165891647339,50,55,80,118,31,31,47,28,1
268,17.76615047454834,53,55,71,136,29,32,45,25,1
269,17.789586305618286,50,58,71,145,28,32,48,30,1
270,17.811731815338135,55,67,93,156,30,31,50,30,1
271,17.826141119003296,59,73,113,170,28,31,58,31,1
272,17.8494975566864,55,73,120,194,31,31,58,29,1
273,17.871726036071777,54,72,122,181,33,31,58,29,1
274,17.88606858253479,54,76,140,204,36,30,58,27,1
275,17.90864849090576,51,71,126,197,35,30,55,29,1
276,17.93296718597412,45,62,107,189,35,29,43,29,1
277,17.94601845741272,44,58,101,183,30,28,40,30,1
278,17.969183683395386,49,68,109,190,30,27,42,31,1
279,17.99175238609314,44,56,85,150,25,26,39,28,1
280,18.005951166152954,41,53,81,144,27,29,42,26,1
281,18.02915072441101,46,58,91,170,32,26,43,27,1
282,18.051722288131714,49,65,102,175,34,27,47,29,1
283,18.06602931022644,44,54,92,165,34,30,52,28,1
284,18.08917808532715,45,57,93,164,34,27,52,28,1
285,18.11172580718994,54,72,96,168,35,29,55,28,1
286,18.134573936462402,59,83,93,163,31,35,61,30,1
287,18.14910340309143,61,84,89,140,33,36,74,27,1
288,18.171714067459106,62,89,90,147,32,35,74,28,1
289,18.1947762966156,62,90,89,144,34,36,75,29,1
290,18.209550142288208,57,80,93,144,36,35,74,30,1
291,18.23203945159912,51,69,90,119,36,32,74,28,1
292,18.254119873046875,46,67,79,114,34,30,59,28,1
293,18.26903223991394,43,60,79,98,33,30,55,28,1
294,18.291703462600708,49,66,92,113,34,34,63,31,1
295,18.314154148101807,48,65,87,107,30,33,59,30,1
296,18.32917070388794,46,64,86,107,34,35,60,30,1
297,18.352020025253296,48,66,97,134,37,36,61,35,1
298,18.37435746192932,52,68,92,135,37,37,61,36,1
299,18.38839364051819,49,60,76,127,36,34,53,32,1
300,18.411536693572998,55,68,99,149,37,36,72,35,1
301,18.434120178222656,57,66,95,145,33,33,66,35,1
302,18.448572158813477,56,62,87,120,29,32,64,31,1
303,18.471543073654175,55,67,93,117,30,30,66,29,1
304,18.49415159225464,52,67,96,120,31,29,67,32,1
305,18.508424758911133,45,58,75,82,31,24,47,28,1
306,18.531658172607422,42,55,79,96,30,24,45,29,1
307,18.554205417633057,49,61,92,110,33,22,49,30,1
308,18.569230794906616,47,53,87,134,32,21,46,29,1
309,18.591920375823975,53,60,93,129,29,26,53,29,1
310,18.614022731781006,71,85,115,142,31,31,59,30,1
311,18.62813138961792,69,86,115,159,32,31,63,28,1
312,18.651135683059692,65,81,108,152,31,32,63,28,1
313,18.6733615398407,66,82,115,126,32,34,62,27,1
314,18.69596004486084,64,80,110,142,33,37,56,27,1
315,18.712825298309326,43,53,83,137,29,32,48,25,1
316,18.733746767044067,49,57,84,106,29,35,50,28,1
317,18.75629425048828,46,57,77,116,25,35,50,30,1
318,18.773184776306152,45,55,66,135,24,34,49,32,1
319,18.793391466140747,40,54,72,117,27,29,55,32,1
320,18.81595015525818,43,59,77,116,32,33,60,33,1
321,18.83351993560791,42,53,75,126,33,30,55,33,1
322,18.85348606109619,47,57,82,115,34,33,55,31,1
323,18.876038312911987,50,63,94,101,35,33,61,30,1
324,18.892749547958374,52,58,87,105,33,34,55,29,1
325,18.913679361343384,53,57,86,100,30,31,53,29,1
326,18.935904026031494,56,62,96,128,32,37,56,29,1
327,18.95367169380188,52,58,95,139,32,33,54,28,1
328,18.973480224609375,52,54,86,136,32,34,50,28,1
329,18.996150255203247,54,60,86,144,33,34,52,27,1
330,19.0127432346344,53,59,86,151,42,36,50,30,1
331,19.033461809158325,48,55,72,121,46,31,49,27,1
332,19.05612087249756,49,63,85,139,54,33,55,30,1
333,19.072643756866455,45,64,85,137,55,31,53,32,1
334,19.093384265899658,40,56,81,165,57,29,51,33,1
335,19.116138219833374,40,60,83,179,51,28,60,30,1
336,19.13266110420227,40,61,89,179,44,26,57,30,1
337,19.153352975845337,41,54,78,158,33,25,53,29,1
338,19.17598056793213,46,59,86,189,34,33,58,28,1
339,19.192698001861572,51,65,86,166,31,33,56,27,1
340,19.21342897415161,50,61,87,153,31,33,50,28,1
341,19.235945463180542,54,65,83,184,38,39,55,30,1
342,19.253197193145752,52,65,82,195,38,37,52,30,1
343,19.273725748062134,47,56,74,169,35,33,47,28,1
344,19.295886278152466,43,52,79,161,35,34,48,30,1
345,19.312737703323364,40,53,78,172,36,33,46,32,1
346,19.334391355514526,33,45,76,150,28,27,40,31,1
347,19.356327295303345,31,42,73,134,30,29,48,30,1
348,19.380307912826538,35,47,73,131,31,32,48,31,1
349,19.393492221832275,39,52,70,135,30,30,54,31,1
350,19.415375471115112,39,52,68,114,29,30,54,29,1
351,19.4335777759552,45,53,68,99,30,32,60,30,1
352,19.453564405441284,47,56,69,119,30,30,55,32,1
353,19.475932359695435,46,58,67,124,30,24,53,31,1
354,19.493761777877808,43,52,64,120,31,29,54,31,1
355,19.51345682144165,45,49,58,115,28,27,53,30,1
356,19.535948991775513,44,56,61,108,27,28,46,36,1
357,19.553911685943604,51,69,72,88,30,34,58,35,1
358,19.573771953582764,53,70,71,87,29,36,58,34,1
359,19.59591794013977,54,71,75,85,34,34,55,34,1
360,19.61265802383423,53,74,74,84,37,36,59,33,1
361,19.633442878723145,49,68,69,108,40,35,59,23,1
362,19.655821084976196,46,58,63,137,39,28,50,22,1
363,19.67279863357544,47,58,73,135,39,30,51,25,1
364,19.69342017173767,46,57,73,141,36,32,50,26,1
365,19.715991258621216,46,59,99,146,34,31,46,27,1
366,19.73434805870056,51,67,108,130,32,31,49,29,1
367,19.753398656845093,48,63,107,154,29,32,46,30,1
368,19.775371313095093,52,76,118,161,30,33,58,29,1
369,19.79376745223999,53,74,121,157,30,30,56,28,1
370,19.813414812088013,54,75,106,153,28,33,61,29,1
371,19.83779788017273,50,72,106,179,29,36,65,31,1
372,19.852803707122803,47,72,107,137,29,36,68,32,1
373,19.873535871505737,43,62,104,162,33,35,66,33,1
374,19.895877361297607,50,71,111,175,34,36,67,34,1
375,19.912566423416138,53,70,113,179,35,33,59,33,1
376,19.933550119400024,57,74,113,163,33,30,59,30,1
377,19.95646357536316,56,73,114,192,35,30,61,28,1
378,19.9783833026886,53,68,101,181,32,26,52,27,1
379,19.993459224700928,47,64,91,166,31,25,51,30,1
380,20.016205072402954,44,61,84,182,31,26,56,32,1
381,20.038391590118408,38,50,76,177,31,26,50,35,1
382,20.053441286087036,40,52,70,139,28,25,49,33,1
383,20.076117277145386,46,61,86,120,31,30,51,34,1
384,20.0983567237854,48,61,86,149,31,32,56,34,1
385,20.113386154174805,45,62,92,132,31,31,53,32,1
386,20.136001348495483,52,70,94,133,35,32,57,31,1
387,20.15852189064026,50,65,96,152,35,34,56,32,1
388,20.17344570159912,47,60,79,155,34,33,57,31,1
389,20.196046113967896,50,63,76,129,35,32,55,28,1
390,20.2184100151062,51,61,68,141,36,33,60,29,1
391,20.233423948287964,45,55,74,163,31,31,56,29,1
392,20.25606369972229,53,64,73,146,32,33,55,30,1
393,20.278461933135986,55,73,96,159,31,34,63,29,1
394,20.2934467792511,53,72,101,169,30,36,71,29,1
395,20.315868139266968,50,71,104,160,30,37,67,28,1
396,20.338445901870728,55,78,119,160,31,40,70,27,1
397,20.35342001914978,56,80,126,165,35,42,77,30,1
398,20.376756191253662,53,70,116,158,35,39,71,31,1
399,20.398643493652344,55,70,116,156,36,37,69,31,1
400,20.413391590118408,60,73,124,180,37,41,78,32,1
401,20.435879468917847,59,68,117,161,35,39,76,29,1
402,20.458372116088867,52,61,108,153,32,32,68,27,1
403,20.473568201065063,62,70,108,185,33,35,74,27,1
404,20.49628496170044,56,69,109,189,30,35,71,27,1
405,20.51803493499756,54,65,98,156,31,29,61,28,1
406,20.533013105392456,53,66,84,168,32,28,56,29,1
407,20.556106090545654,58,71,104,186,35,30,57,28,1
408,20.578505992889404,52,69,112,146,38,34,50,27,1
409,20.593491792678833,64,78,112,146,44,40,66,27,1
410,20.61546015739441,70,81,117,159,46,44,71,27,1
411,20.638518571853638,70,80,123,154,47,44,75,28,1
412,20.653416872024536,67,80,111,140,46,44,77,27,1
413,20.676822662353516,66,79,108,158,44,42,80,26,1
414,20.698603630065918,61,84,131,169,43,42,78,28,1
415,20.713664293289185,55,81,127,183,40,40,81,29,1
416,20.736035346984863,52,78,122,180,41,40,81,28,1
417,20.760183811187744,53,75,119,176,41,39,77,29,1
418,20.77357268333435,52,74,129,185,42,37,77,30,1
419,20.796247720718384,44,56,99,168,36,32,63,29,1
420,20.81847858428955,58,74,112,144,42,35,57,29,1
421,20.832882404327393,63,79,111,135,39,36,55,31,1
422,20.855785131454468,61,78,122,148,44,35,58,31,1
423,20.878427505493164,58,74,104,114,40,33,52,32,1
424,20.893324851989746,62,79,119,112,41,35,58,30,1
425,20.915831565856934,51,64,106,110,35,30,56,30,1
426,20.938650369644165,46,58,105,116,34,28,58,30,1
427,20.960930585861206,49,59,93,96,27,29,60,30,1
428,20.975945472717285,52,63,97,121,28,32,59,28,1
429,20.998743057250977,48,62,84,152,29,27,52,31,1
430,21.02100944519043,56,70,94,160,26,31,58,37,1
431,21.03622055053711,59,72,98,154,28,33,67,38,1
432,21.059377908706665,56,71,98,162,29,35,63,38,1
433,21.081191301345825,56,67,92,153,29,38,74,39,1
434,21.09639620780945,58,62,89,115,31,39,75,39,1
435,21.118539333343506,50,56,94,117,32,36,72,36,1
436,21.140957355499268,52,57,106,165,32,41,84,33,1
437,21.156142950057983,64,73,120,184,40,44,95,32,1
438,21.178839683532715,63,73,124,196,45,43,94,31,1
439,21.200925588607788,60,72,121,200,42,44,97,34,1
440,21.215898275375366,63,75,119,203,47,50,101,34,1
441,21.238840103149414,70,83,117,183,47,45,84,36,1
442,21.269131660461426,62,73,112,162,41,40,76,37,1
443,21.275983810424805,64,74,109,133,34,39,70,38,1
444,21.298596143722534,65,74,112,132,36,40,66,38,1
445,21.321265935897827,57,69,104,117,30,33,58,32,1
446,21.335984706878662,47,64,99,90,27,33,55,33,1
447,21.357999801635742,45,64,103,113,27,31,47,31,1
448,21.381328582763672,44,71,110,129,29,32,47,30,1
449,21.396013498306274,46,72,105,130,28,31,47,29,1
450,21.418341636657715,47,70,104,125,29,32,47,29,1
451,21.440892934799194,47,64,104,132,29,32,49,31,1
452,21.455820560455322,43,61,95,113,29,34,50,31,1
453,21.47849130630493,44,52,94,105,31,35,52,32,1
454,21.501795530319214,55,69,117,111,32,38,57,31,1
455,21.51589012145996,55,68,115,147,34,40,62,33,1
456,21.53838324546814,52,66,112,163,35,40,68,33,1
457,21.561234951019287,58,75,109,189,39,44,74,36,1
458,21.576004028320312,61,82,106,185,38,41,71,34,1
459,21.598812341690063,50,67,86,181,36,38,68,34,1
460,21.620786905288696,53,74,103,176,37,37,68,31,1
461,21.635571718215942,55,77,104,159,36,37,63,28,1
462,21.657874822616577,52,71,98,119,32,34,58,23,1
463,21.680840730667114,46,60,92,125,30,33,60,22,1
464,21.695899724960327,47,60,93,157,30,34,56,23,1
465,21.718395948410034,44,50,83,132,24,31,52,28,1
466,21.74042773246765,45,52,87,137,26,31,50,30,1
467,21.755483388900757,45,52,90,151,22,31,47,33,1
468,21.778316497802734,47,57,93,150,23,31,42,33,1
469,21.80088472366333,48,59,87,114,21,30,47,34,1
470,21.816059589385986,47,60,86,112,23,31,48,31,1
471,21.838539600372314,44,57,82,125,29,31,49,36,1
472,21.86095094680786,45,58,77,111,32,32,53,35,1
473,21.883619785308838,42,51,73,109,34,32,52,37,1
474,21.898446798324585,45,56,80,118,37,34,55,35,1
475,21.92085313796997,45,63,104,142,38,35,56,34,1
476,21.943350076675415,46,62,98,127,35,32,53,31,1
477,21.958405256271362,43,58,102,131,34,30,53,32,1
478,21.981473445892334,45,65,113,169,32,31,60,29,1
479,22.00380802154541,41,61,111,180,33,27,54,29,1
480,22.01870584487915,39,54,82,162,31,23,50,28,1
481,22.041050672531128,37,57,89,165,29,27,53,24,1
482,22.063392877578735,45,63,90,166,32,31,59,28,1
483,22.07852005958557,47,61,86,144,37,34,61,31,1
484,22.10089135169983,46,59,98,135,35,35,63,33,1
485,22.12375521659851,53,76,117,156,37,38,66,34,1
486,22.138397932052612,60,81,115,159,41,37,66,36,1
487,22.160651922225952,57,77,114,160,39,31,61,32,1
488,22.182896852493286,51,73,109,165,38,29,51,30,1
489,22.19875454902649,54,74,102,162,40,29,50,29,1
490,22.220930099487305,48,56,85,144,43,29,47,33,1
491,22.243417024612427,39,47,85,141,40,30,41,32,1
492,22.25846028327942,41,47,84,141,39,31,38,33,1
493,22.281675338745117,42,49,92,121,38,30,42,33,1
494,22.303430795669556,47,53,95,123,37,30,47,32,1
495,22.318625450134277,50,59,92,153,33,34,51,28,1
496,22.34115958213806,54,59,90,159,31,30,51,26,1
497,22.36350417137146,52,59,93,155,31,30,53,25,1
498,22.378406286239624,53,60,95,194,29,31,67,23,1
499,22.400850296020508,47,58,92,188,29,31,65,26,1
500,22.423760652542114,49,61,102,166,26,25,64,27,1
501,22.438493490219116,46,62,101,164,30,27,67,31,1
502,22.460976123809814,46,65,100,163,29,27,64,32,1
503,22.482943773269653,46,66,89,117,28,26,50,32,1
504,22.497965097427368,48,66,88,113,31,29,56,34,1
505,22.520954370498657,43,61,83,112,31,29,56,32,1
506,25.071735858917236,38,50,58,151,28,26,46,24,2
507,25.086175680160522,40,49,56,151,29,26,44,26,2
508,25.109227418899536,39,44,53,150,27,26,44,27,2
509,25.132657051086426,34,35,52,139,27,27,44,28,2
510,25.145890951156616,44,34,50,72,26,25,41,29,2
511,25.16923689842224,44,34,46,91,27,24,39,29,2
512,25.19161891937256,41,34,52,96,26,25,38,28,2
513,25.20597529411316,43,32,51,97,27,23,37,30,2
514,25.229657411575317,47,42,49,98,27,23,38,29,2
515,25.251645803451538,44,47,51,91,28,24,39,30,2
516,25.26606774330139,51,50,51,81,27,25,40,30,2
517,25.289232969284058,52,49,49,99,31,26,43,31,2
518,25.312456607818604,51,50,50,98,32,29,42,30,2
519,25.326201677322388,55,39,46,96,31,27,37,32,2
520,25.349018096923828,49,36,44,96,30,26,37,31,2
521,25.37192130088806,44,37,43,94,31,25,34,32,2
522,25.38582968711853,44,39,40,78,27,27,32,33,2
523,25.409135818481445,44,39,40,79,25,24,35,33,2
524,25.43203902244568,33,39,42,80,25,24,35,30,2
525,25.44593334197998,44,37,41,78,24,22,36,32,2
526,25.46921706199646,44,32,37,78,26,22,38,32,2
527,25.49172830581665,45,34,41,97,28,20,38,30,2
528,25.505916595458984,48,47,54,99,32,25,39,31,2
529,25.529093503952026,54,50,57,99,32,26,38,31,2
530,25.551671743392944,48,52,63,105,32,27,38,32,2
531,25.565803050994873,50,55,66,93,31,28,39,32,2
532,25.589112281799316,47,55,63,72,30,27,36,30,2
533,25.612122058868408,46,43,54,79,25,24,37,30,2
534,25.625943660736084,39,43,54,87,27,24,42,32,2
535,25.64935827255249,38,43,47,84,28,23,42,28,2
536,25.6715989112854,34,42,45,83,25,22,41,27,2
537,25.694329977035522,43,39,44,80,26,21,45,32,2
538,25.709141492843628,43,39,41,74,27,20,46,33,2
539,25.731778621673584,45,35,33,81,25,19,42,31,2
540,25.75458860397339,55,38,33,88,22,21,42,35,2
541,25.776623249053955,55,34,30,92,24,22,43,37,2
542,25.791655778884888,49,36,32,93,24,22,37,33,2
543,25.814248085021973,50,44,40,95,25,25,43,32,2
544,25.82873797416687,48,47,46,89,27,26,43,34,2
545,25.85207462310791,35,46,50,82,28,25,46,30,2
546,25.873698234558105,37,46,51,81,27,25,45,29,2
547,25.88793396949768,49,58,62,77,28,27,49,33,2
548,25.911838054656982,47,55,59,73,26,26,40,33,2
549,25.93450903892517,52,54,56,72,24,25,45,31,2
550,25.948312282562256,58,51,55,76,25,25,41,33,2
551,25.97948670387268,59,52,55,74,23,25,41,32,2
552,25.99453902244568,49,44,52,75,25,23,40,27,2
553,26.00843572616577,46,42,53,74,25,24,44,27,2
554,26.03160285949707,43,41,52,80,25,24,43,29,2
555,26.05410647392273,37,41,48,76,24,24,43,29,2
556,26.068397283554077,36,41,47,77,27,23,42,29,2
557,26.091888904571533,37,36,35,72,24,24,39,29,2
558,26.114018440246582,36,32,33,67,23,22,38,29,2
559,26.128522634506226,34,34,33,43,24,22,32,28,2
560,26.15160894393921,37,37,36,38,27,22,33,27,2
561,26.17414903640747,34,35,37,34,27,22,33,27,2
562,26.188592672348022,37,33,40,39,25,23,36,28,2
563,26.21305561065674,41,38,53,60,27,25,38,30,2
564,26.234103202819824,40,37,57,90,27,26,47,31,2
565,26.248427391052246,37,36,61,94,25,27,46,31,2
566,26.27188229560852,42,39,60,98,24,27,47,29,2
567,26.2944016456604,41,49,67,99,26,29,52,29,2
568,26.308297395706177,44,50,60,92,26,30,51,26,2
569,26.331671476364136,46,48,59,104,26,30,43,25,2
570,26.354079246520996,45,48,55,123,27,31,45,26,2
571,26.36851978302002,48,45,58,122,28,31,44,28,2
572,26.391613721847534,46,34,48,121,27,28,37,26,2
573,26.414433479309082,41,30,48,119,29,26,37,28,2
574,26.429784059524536,41,36,49,89,30,26,40,29,2
575,26.45164394378662,43,38,49,132,30,25,40,29,2
576,26.47393822669983,42,39,48,134,27,25,41,29,2
577,26.488341093063354,41,40,49,136,27,28,44,29,2
578,26.511608362197876,41,39,47,135,23,26,42,27,2
579,26.534062385559082,41,34,44,139,21,26,38,25,2
580,26.54873824119568,44,41,44,85,21,26,43,23,2
581,26.571770429611206,40,45,45,125,25,26,44,23,2
582,26.59416389465332,39,46,44,129,27,24,41,23,2
583,26.608448028564453,42,48,48,130,27,25,41,24,2
584,26.631646633148193,49,49,46,128,25,24,44,29,2
585,26.654613494873047,53,47,50,122,27,25,39,31,2
586,26.676677227020264,52,45,49,106,26,26,39,30,2
587,26.691755771636963,63,41,47,101,26,27,37,31,2
588,26.71435546875,61,43,44,102,26,26,36,29,2
589,26.736855268478394,55,44,44,99,28,27,36,24,2
590,26.75094246864319,46,38,36,105,25,27,35,24,2
591,26.775517225265503,44,35,35,73,23,26,35,27,2
592,26.796968936920166,33,39,38,68,23,27,37,25,2
593,26.812824726104736,33,33,39,71,25,29,40,26,2
594,26.834171295166016,32,34,40,111,26,27,41,27,2
595,26.857163429260254,31,34,40,112,26,27,39,28,2
596,26.87157368659973,35,40,46,116,28,25,38,26,2
597,26.894693851470947,40,36,44,115,29,22,38,26,2
598,26.916667938232422,40,37,40,114,26,19,36,27,2
599,26.932252645492554,42,34,39,125,27,22,35,27,2
600,26.954050302505493,42,35,42,121,27,22,37,24,2
601,26.97667622566223,47,41,56,125,26,26,38,29,2
602,26.991124629974365,48,46,57,127,26,28,37,30,2
603,27.01406192779541,48,46,57,127,26,28,37,29,2
604,27.037965059280396,48,46,58,79,23,25,33,30,2
605,27.051543474197388,54,49,62,81,24,25,30,31,2
606,27.07531428337097,49,44,48,89,29,24,32,28,2
607,27.096824884414673,39,38,47,89,29,22,31,30,2
608,27.11088228225708,40,40,50,87,28,24,29,32,2
609,27.134565591812134,40,44,52,87,29,25,33,33,2
610,27.156840562820435,39,42,49,86,27,24,36,32,2
611,27.171079874038696,37,39,46,89,23,22,37,30,2
612,27.194452047348022,38,41,46,90,22,22,45,28,2
613,27.2166166305542,39,43,52,92,24,23,47,26,2
614,27.232155561447144,39,43,55,96,25,25,48,23,2
615,27.25440740585327,33,38,55,94,27,28,48,24,2
616,27.27673840522766,37,48,62,72,28,32,52,25,2
617,27.29103922843933,48,52,63,92,33,32,48,26,2
618,27.314629554748535,46,48,56,99,31,31,47,27,2
619,27.33682918548584,49,51,55,106,36,31,46,28,2
620,27.351004362106323,55,59,63,113,37,32,46,27,2
621,27.37409472465515,56,53,58,125,37,27,39,28,2
622,27.39669156074524,47,50,55,117,32,26,37,30,2
623,27.411497354507446,52,58,65,121,32,26,41,31,2
624,27.43417763710022,56,57,62,115,27,26,44,32,2
625,27.456680059432983,53,51,59,102,24,25,43,35,2
626,27.47044825553894,51,53,61,112,22,26,44,35,2
627,27.49399733543396,54,65,68,104,26,30,48,34,2
628,27.516653537750244,49,59,61,95,29,29,45,33,2
629,27.530983448028564,45,58,63,108,31,27,44,32,2
630,27.554368019104004,51,60,58,111,32,27,44,30,2
631,27.57681655883789,55,62,61,88,33,29,44,30,2
632,27.599128246307373,53,50,58,87,31,27,41,31,2
633,27.614052057266235,55,51,59,104,29,28,44,33,2
634,27.636833667755127,54,48,56,100,29,27,43,35,2
635,27.65914535522461,44,42,55,99,30,26,44,34,2
636,27.67411518096924,40,36,47,95,29,23,43,33,2
637,27.697879552841187,52,36,42,94,28,21,42,31,2
638,27.71915888786316,50,32,40,118,26,22,39,28,2
639,27.73407554626465,50,36,46,118,24,24,38,29,2
640,27.756231546401978,51,38,45,120,22,25,37,29,2
641,27.778677225112915,63,40,46,122,20,26,37,28,2
642,27.79407525062561,59,44,48,125,21,26,36,26,2
643,27.816590547561646,64,47,51,123,25,26,36,26,2
644,27.83919930458069,66,47,51,129,30,27,41,24,2
645,27.85415267944336,66,46,52,143,29,26,41,23,2
646,27.876838445663452,55,42,51,144,30,25,42,26,2
647,27.899194955825806,50,48,59,146,31,23,44,28,2
648,27.913427352905273,49,48,58,114,31,24,45,28,2
649,27.936856269836426,48,46,58,109,27,21,40,28,2
650,27.959442377090454,50,46,57,96,27,19,40,28,2
651,27.973447799682617,52,47,57,95,27,21,37,27,2
652,27.997761249542236,56,36,48,96,25,22,37,24,2
653,28.019303798675537,51,39,46,99,22,21,36,26,2
654,28.033395528793335,50,40,41,110,23,22,37,24,2
655,28.056609392166138,47,43,41,105,21,26,36,23,2
656,28.079089641571045,46,44,41,104,22,25,39,25,2
657,28.09330153465271,46,52,48,102,23,31,43,25,2
658,28.11664628982544,47,51,54,112,21,30,45,29,2
659,28.13909912109375,46,53,57,118,22,29,45,28,2
660,28.15390110015869,60,55,58,113,25,29,45,32,2
661,28.17683696746826,58,53,58,111,27,32,45,31,2
662,28.199159622192383,51,44,52,108,31,28,37,31,2
663,28.213658809661865,60,43,46,102,32,28,36,27,2
664,28.236631155014038,62,41,47,89,35,29,41,30,2
665,28.259365558624268,49,34,42,93,34,28,45,25,2
666,28.273637533187866,49,33,41,95,34,23,42,25,2
667,28.29753541946411,53,35,40,115,32,22,43,28,2
668,28.31907868385315,53,34,38,115,33,21,42,29,2
669,28.333478212356567,53,33,34,123,31,22,37,27,2
670,28.356605768203735,54,36,37,122,30,24,35,29,2
671,28.37919282913208,56,39,38,126,28,24,36,30,2
672,28.39381766319275,57,44,39,113,32,25,40,29,2
673,28.416763067245483,45,42,41,127,30,26,44,30,2
674,28.43913221359253,40,40,39,121,28,23,44,32,2
675,28.453283071517944,38,38,37,127,27,21,42,32,2
676,28.4766526222229,45,42,42,126,29,23,43,32,2
677,28.49865460395813,41,38,40,122,24,24,38,32,2
678,28.52087950706482,51,46,43,121,26,23,39,31,2
679,28.53773307800293,50,47,44,102,26,27,40,31,2
680,28.558274745941162,51,53,44,91,28,26,39,30,2
681,28.580861806869507,51,53,46,92,26,26,37,30,2
682,28.59774374961853,48,54,46,108,26,26,42,30,2
683,28.618377685546875,39,49,44,90,26,29,36,30,2
684,28.640966653823853,55,49,42,107,26,28,34,31,2
685,28.65873146057129,55,41,40,108,24,28,34,35,2
686,28.678332328796387,50,36,32,104,27,26,34,37,2
687,28.701587677001953,51,33,31,85,25,26,30,36,2
688,28.718097686767578,53,32,39,84,24,23,40,35,2
689,28.73884153366089,47,35,40,60,25,23,44,34,2
690,28.760884284973145,57,48,57,60,25,28,51,30,2
691,28.777946949005127,57,50,61,75,25,33,52,30,2
692,28.798574209213257,59,50,63,83,27,33,52,29,2
693,28.820946216583252,59,49,58,91,27,32,47,29,2
694,28.837762355804443,52,50,56,94,27,31,41,27,2
695,28.858461380004883,41,39,42,96,28,26,36,28,2
696,28.88130211830139,44,39,47,106,27,22,35,25,2
697,28.897738218307495,45,40,46,109,24,22,36,26,2
698,28.918413162231445,46,40,44,99,25,24,39,25,2
699,28.941155433654785,45,36,45,96,24,24,41,25,2
700,28.95783805847168,48,36,44,92,26,26,40,25,2
701,28.978307008743286,47,35,34,83,26,27,46,25,2
702,29.000396728515625,56,43,44,99,26,27,44,24,2
703,29.018377780914307,54,47,48,105,26,26,44,25,2
704,29.0387179851532,53,45,48,107,26,24,42,24,2
705,29.06056499481201,49,47,50,107,24,26,43,24,2
706,29.076858043670654,47,45,49,104,24,25,36,25,2
707,29.098676443099976,35,38,46,130,24,26,36,25,2
708,29.120999574661255,36,36,46,129,25,25,34,30,2
709,29.137755632400513,48,46,52,128,30,26,37,33,2
710,29.15838861465454,49,46,50,129,30,23,35,35,2
711,29.18083691596985,50,46,52,127,31,24,36,36,2
712,29.197656631469727,51,54,63,98,33,27,41,35,2
713,29.218379497528076,57,53,64,121,34,29,45,32,2
714,29.240880250930786,49,45,59,121,29,28,42,31,2
715,29.258805990219116,55,46,61,137,30,29,42,30,2
716,29.278077602386475,55,47,65,151,29,27,47,30,2
717,29.300383806228638,52,36,49,137,26,24,43,29,2
718,29.318161725997925,46,37,51,111,27,20,41,26,2
719,29.338788270950317,46,37,52,116,26,22,40,29,2
720,29.361916303634644,38,36,51,114,25,21,39,27,2
721,29.378151893615723,36,33,45,94,25,22,31,27,2
722,29.39832901954651,43,41,48,97,25,25,33,29,2
723,29.4207923412323,52,44,51,103,23,26,30,33,2
724,29.439057111740112,49,46,54,109,24,26,31,30,2
725,29.4585919380188,50,45,51,113,25,27,34,29,2
726,29.480950832366943,58,47,53,112,25,26,36,29,2
727,29.50337505340576,60,42,50,112,27,26,34,29,2
728,29.519015550613403,50,37,44,113,26,25,34,27,2
729,29.54075527191162,56,40,40,101,25,28,38,27,2
730,29.56366276741028,58,41,44,101,27,26,37,26,2
731,29.578373193740845,62,40,41,101,27,26,38,30,2
732,29.601425647735596,54,39,41,113,26,24,37,30,2
733,29.62370800971985,54,38,41,108,27,24,37,30,2
734,29.638391494750977,55,34,46,111,27,20,33,30,2
735,29.66086745262146,62,37,47,106,25,21,34,29,2
736,29.683573246002197,55,37,46,101,24,23,31,29,2
737,29.69832444190979,59,46,55,92,25,25,35,29,2
738,29.720869779586792,60,47,54,90,26,26,34,29,2
739,29.743510723114014,58,46,53,113,26,27,35,30,2
740,29.758403301239014,58,49,56,111,28,31,43,31,2
741,29.781052112579346,56,50,60,118,30,30,48,28,2
742,29.803478956222534,58,45,53,111,29,31,46,28,2
743,29.818718433380127,58,43,50,126,29,29,47,27,2
744,29.840850353240967,61,48,55,113,31,28,48,28,2
745,29.863553285598755,55,43,53,111,30,23,41,28,2
746,29.878777503967285,53,44,51,106,27,22,37,26,2
747,29.901487588882446,50,41,50,107,26,20,35,27,2
748,29.92339324951172,51,39,50,109,23,20,35,26,2
749,29.940592288970947,46,33,42,122,26,21,36,24,2
750,29.960896253585815,43,35,40,112,24,23,35,25,2
751,29.983368635177612,47,30,39,110,27,23,36,25,2
752,30.000173568725586,48,31,41,124,27,24,39,25,2
753,30.020911693572998,48,35,47,128,28,25,41,24,2
754,30.043267011642456,49,38,53,107,23,26,38,25,2
755,30.06000065803528,56,39,53,106,25,25,38,25,2
756,30.081108331680298,55,42,54,107,24,25,35,27,2
757,30.103652238845825,50,46,54,111,26,24,34,26,2
758,30.12112069129944,55,47,51,111,29,26,33,26,2
759,30.1408371925354,51,48,46,111,29,23,33,27,2
760,30.163541555404663,46,49,50,112,28,22,32,27,2
761,30.181400299072266,45,48,49,128,27,21,34,27,2
762,30.200944185256958,44,43,49,127,27,22,33,30,2
763,30.223415851593018,48,42,47,109,24,19,32,32,2
764,30.24030828475952,51,43,50,109,22,20,32,33,2
765,30.26112651824951,54,43,49,108,22,23,37,36,2
766,30.28327751159668,52,45,52,88,23,25,38,34,2
767,30.299401998519897,53,46,50,99,22,25,37,33,2
768,30.32079839706421,50,52,57,117,24,28,40,31,2
769,30.343387126922607,46,49,54,117,24,27,39,29,2
770,30.36048936843872,39,46,49,116,25,25,39,27,2
771,30.3815016746521,41,47,48,130,27,24,38,29,2
772,30.402870655059814,42,51,55,146,27,25,41,30,2
773,30.425981283187866,39,44,49,131,28,24,37,29,2
774,30.441296577453613,48,41,46,131,33,26,38,27,2
775,30.46309494972229,48,41,54,135,35,27,36,26,2
776,30.486074924468994,51,41,54,136,34,27,37,26,2
777,30.500839233398438,59,36,47,105,34,25,37,25,2
778,30.52342391014099,56,33,45,106,33,23,36,27,2
779,30.545782804489136,48,36,46,104,31,22,35,28,2
780,30.560797691345215,53,49,54,104,28,22,40,30,2
781,30.585179090499878,63,50,54,84,28,22,38,31,2
782,30.605878829956055,61,52,57,111,28,23,37,33,2
783,30.620806455612183,61,57,60,116,32,25,39,32,2
784,30.64379358291626,64,59,62,120,30,28,38,35,2
785,30.666158199310303,62,49,48,117,32,26,33,33,2
786,30.680883169174194,55,46,46,132,31,26,32,33,2
787,30.70379900932312,50,43,44,123,29,28,36,34,2
788,30.725777626037598,50,39,44,121,23,28,42,35,2
789,30.741374015808105,52,41,46,122,26,27,43,34,2
790,30.76348900794983,58,47,50,123,25,29,46,36,2
791,30.794111490249634,52,53,67,174,24,31,54,34,2
792,30.801329612731934,51,56,69,168,25,29,55,31,2
793,30.82371497154236,52,57,69,167,25,29,52,29,2
794,30.845507383346558,47,53,68,165,24,28,52,28,2
795,30.86036705970764,53,47,65,164,23,28,50,25,2
796,30.88393998146057,52,37,48,124,25,27,43,31,2
797,30.90588688850403,60,39,51,112,26,26,38,30,2
798,30.920968770980835,58,38,50,115,27,25,36,33,2
799,30.94354772567749,73,41,49,113,26,27,39,31,2
800,30.965986728668213,69,66,71,114,30,31,47,32,2
801,30.980944633483887,73,74,80,86,32,32,51,29,2
802,31.004488945007324,69,72,77,77,32,32,52,30,2
803,31.025781393051147,72,73,75,78,36,33,55,31,2
804,31.04098629951477,59,71,76,78,35,32,53,32,2
805,31.063421726226807,55,53,59,117,36,32,48,34,2
806,31.085963010787964,47,44,52,115,35,33,45,34,2
807,31.10098934173584,47,56,64,118,33,36,49,33,2
808,31.123389959335327,49,53,67,127,30,37,49,31,2
809,31.14584732055664,50,57,69,127,33,37,49,30,2
810,31.161672592163086,49,61,76,106,29,34,49,23,2
811,31.183512449264526,52,61,74,100,27,32,47,27,2
812,31.20583438873291,63,53,68,107,29,27,41,28,2
813,31.220841884613037,58,54,65,96,27,26,42,26,2
814,31.243540048599243,66,62,74,130,30,28,45,27,2
815,31.265721321105957,64,59,67,122,30,27,48,27,2
816,31.28086566925049,65,56,66,121,30,27,47,23,2
817,31.303415775299072,51,55,61,118,28,28,46,26,2
818,31.325845956802368,50,56,67,120,29,27,45,26,2
819,31.340826272964478,41,50,59,91,26,27,44,27,2
820,31.36338758468628,51,55,66,84,29,32,40,29,2
821,31.38593316078186,49,55,65,86,28,32,39,30,2
822,31.408652782440186,49,54,63,84,29,32,42,28,2
823,31.42347478866577,56,66,69,97,31,34,41,28,2
824,31.445880889892578,62,64,70,96,32,37,44,28,2
825,31.468461990356445,59,58,60,101,30,32,39,26,2
826,31.483679056167603,62,58,59,98,30,33,39,28,2
827,31.50597906112671,66,67,66,96,32,36,40,30,2
828,31.528879642486572,60,52,51,110,32,34,39,29,2
829,31.54360580444336,53,49,46,117,30,28,36,28,2
830,31.566037893295288,48,48,48,114,33,29,37,31,2
831,31.58849787712097,45,50,53,124,34,29,37,30,2
832,31.60434317588806,42,38,45,124,32,24,33,28,2
833,31.625763177871704,43,38,47,104,31,26,32,30,2
834,31.648330450057983,47,42,53,116,31,27,35,31,2
835,31.663483142852783,48,50,59,121,30,25,38,28,2
836,31.685935020446777,43,47,54,116,28,25,41,27,2
837,31.708642721176147,49,48,54,118,28,24,40,29,2
838,31.72337317466736,52,46,55,119,26,23,37,27,2
839,31.7457594871521,51,48,54,96,29,24,37,24,2
840,31.768653869628906,51,43,48,93,29,25,36,26,2
841,31.783820390701294,51,42,46,99,30,26,37,27,2
842,31.805835962295532,61,46,54,102,31,31,43,25,2
843,31.82820415496826,59,47,54,105,33,30,45,25,2
844,31.843587636947632,60,44,49,109,30,31,46,30,2
845,31.86590600013733,60,43,47,115,29,30,45,30,2
846,31.88844633102417,70,55,70,130,30,29,47,28,2
847,31.90355396270752,62,53,65,131,26,23,41,28,2
848,31.926255226135254,65,57,70,116,27,27,47,30,2
849,31.948485136032104,61,58,70,132,28,24,45,27,2
850,31.96343684196472,62,58,75,129,26,24,49,25,2
851,31.985807180404663,68,65,69,109,28,30,53,24,2
852,32.008349895477295,65,64,71,105,31,31,53,27,2
853,32.02340269088745,59,60,65,127,29,29,49,26,2
854,32.04597449302673,60,59,68,114,28,30,49,31,2
855,32.06837511062622,60,65,71,111,30,31,51,33,2
856,32.083585023880005,48,52,59,105,29,27,48,34,2
857,32.1058783531189,50,52,60,104,25,26,50,31,2
858,32.12950038909912,49,51,61,98,25,24,49,32,2
859,32.14346647262573,49,50,55,114,26,25,50,26,2
860,32.165865421295166,45,39,45,113,25,22,47,26,2
861,32.188522815704346,44,33,43,112,22,23,40,29,2
862,32.203423261642456,40,30,35,135,24,24,40,31,2
863,32.22596716880798,44,36,39,127,24,23,39,29,2
864,32.248398780822754,43,37,40,108,25,22,37,29,2
865,32.263301372528076,48,41,44,110,28,24,37,28,2
866,32.28591251373291,46,45,46,113,31,23,39,27,2
867,32.30824041366577,45,46,48,106,32,23,40,26,2
868,32.330950021743774,41,47,46,109,33,24,40,25,2
869,32.345932722091675,55,49,48,103,33,25,41,27,2
870,32.36837124824524,49,47,44,101,32,24,40,28,2
871,32.39116287231445,47,45,40,118,29,21,40,25,2
872,32.40585780143738,50,44,37,109,29,21,39,27,2
873,32.42842125892639,56,38,39,98,30,22,39,31,2
874,32.45087146759033,48,36,43,99,30,22,36,31,2
875,32.465882539749146,53,35,46,131,31,22,36,30,2
876,32.48844933509827,53,35,47,117,32,24,40,30,2
877,32.511144399642944,53,36,53,118,33,23,40,32,2
878,32.52574968338013,48,38,52,120,31,22,40,28,2
879,32.54849815368652,51,38,50,124,29,22,43,32,2
880,32.57082486152649,51,41,54,109,28,23,45,33,2
881,32.58590888977051,53,40,59,113,28,23,42,32,2
882,32.60886192321777,49,40,55,103,23,24,45,30,2
883,32.630905628204346,57,40,53,116,26,26,44,31,2
884,32.64622521400452,58,47,55,144,31,31,46,30,2
885,32.668368339538574,55,46,53,155,30,33,43,29,2
886,32.691049575805664,56,45,48,151,28,33,43,31,2
887,32.70600914955139,58,47,52,153,29,33,40,30,2
888,32.7279326915741,57,47,59,154,28,32,43,32,2
889,32.75129747390747,60,44,56,129,24,27,40,29,2
890,32.76582670211792,63,47,58,97,23,26,44,29,2
891,32.78841710090637,62,49,62,96,26,24,44,27,2
892,32.81097388267517,66,52,62,111,26,24,45,27,2
893,32.82618737220764,62,50,57,91,29,26,46,25,2
894,32.84839487075806,56,50,54,91,28,25,43,24,2
895,32.8709762096405,53,46,51,86,28,24,39,22,2
896,32.885923624038696,50,49,50,101,31,26,40,23,2
897,32.90871787071228,44,47,49,87,32,26,37,23,2
898,32.9305374622345,45,50,50,87,31,27,34,28,2
899,32.94826579093933,41,45,57,86,32,29,33,28,2
900,32.96873760223389,40,44,54,126,34,29,34,29,2
901,32.99087715148926,40,39,51,126,30,28,31,28,2
902,33.00586533546448,44,37,49,124,29,28,32,29,2
903,33.029033184051514,46,37,46,123,27,24,37,27,2
904,33.05116510391235,50,41,46,165,27,26,39,28,2
905,33.065911054611206,52,43,47,153,24,28,40,28,2
906,33.08840489387512,55,47,52,143,24,29,42,30,2
907,33.1108283996582,61,44,51,145,25,29,41,31,2
908,33.1261351108551,56,42,54,157,26,29,37,30,2
909,33.14845418930054,54,49,63,119,25,27,40,30,2
910,33.170939922332764,59,54,69,102,26,28,38,31,2
911,33.18583273887634,57,50,68,102,26,28,36,32,2
912,33.20854663848877,64,60,79,100,28,29,42,31,2
913,33.23091530799866,65,62,81,112,29,30,43,30,2
914,33.246209144592285,64,53,69,111,30,30,42,31,2
915,33.268282651901245,59,48,63,110,30,27,40,31,2
916,33.29080390930176,61,51,63,115,29,28,42,30,2
917,33.31419134140015,41,44,58,122,31,28,39,29,2
918,33.328508615493774,39,42,55,100,30,27,37,29,2
919,33.35113716125488,39,44,56,89,30,28,39,31,2
920,33.374086141586304,40,43,56,94,31,26,42,32,2
921,33.38853454589844,41,46,58,101,32,25,46,35,2
922,33.41119313240051,42,41,51,106,29,23,43,36,2
923,33.43439769744873,43,48,52,103,29,26,44,37,2
924,33.448362827301025,44,50,53,103,28,25,42,36,2
925,33.470977783203125,43,49,52,133,26,25,44,37,2
926,33.494229793548584,39,46,46,140,27,25,37,32,2
927,33.508363485336304,40,49,52,129,27,28,37,31,2
928,33.53095746040344,50,46,53,130,27,27,37,29,2
929,33.554123640060425,50,47,55,135,25,28,39,27,2
930,33.57675361633301,50,46,55,105,26,30,36,24,2
931,33.5908989906311,53,47,59,81,26,30,39,24,2
932,33.6137592792511,52,47,58,81,27,29,39,25,2
933,33.629398822784424,54,49,55,82,28,30,42,27,2
934,33.65139365196228,52,50,60,93,29,28,39,30,2
935,33.67404651641846,51,51,61,98,28,27,42,31,2
936,33.68839883804321,57,58,67,103,28,27,43,34,2
937,33.711262464523315,57,59,68,106,29,28,47,33,2
938,33.73454666137695,56,56,69,132,28,27,46,31,2
939,33.74843668937683,58,52,62,126,27,26,48,30,2
940,33.77101159095764,60,51,64,117,31,28,52,27,2
941,33.79416108131409,62,54,71,128,32,31,57,23,2
942,33.808759450912476,62,53,69,137,30,30,56,21,2
943,33.8309051990509,53,52,66,114,33,27,56,21,2
944,33.85370445251465,55,51,68,117,36,29,59,22,2
945,33.868473291397095,53,50,64,116,33,29,56,23,2
946,33.891173124313354,43,37,45,118,30,25,46,28,2
947,33.91417741775513,40,36,41,119,29,24,43,31,2
948,33.928385496139526,44,41,49,115,25,29,44,33,2
949,33.950926780700684,38,42,46,121,22,29,37,32,2
950,33.97411108016968,37,43,46,133,23,29,40,33,2
951,33.9897825717926,41,45,51,117,23,28,39,30,2
952,34.01092576980591,47,50,51,105,29,30,39,30,2
953,34.03411030769348,43,49,49,108,30,27,37,32,2
954,34.048386096954346,44,50,52,115,30,25,37,33,2
955,34.07273197174072,51,55,58,113,29,25,36,34,2
956,34.093875885009766,49,61,65,119,30,28,38,36,2
957,34.109312534332275,53,56,66,115,27,28,38,35,2
958,34.13089156150818,55,55,66,119,28,27,37,34,2
959,34.153831243515015,56,55,64,103,28,28,40,32,2
960,34.16833233833313,52,52,60,102,27,29,37,31,2
961,34.19117045402527,49,44,55,94,28,26,38,28,2
962,34.21333909034729,39,41,52,102,27,28,39,28,2
963,34.236732959747314,39,43,53,116,25,27,41,26,2
964,34.25109028816223,41,46,55,117,25,28,39,26,2
965,34.27339172363281,37,45,55,116,27,28,44,25,2
966,34.29673361778259,40,49,57,138,27,28,46,26,2
967,34.31111931800842,38,49,57,131,25,25,45,25,2
968,34.33399415016174,36,47,53,116,28,27,44,30,2
969,34.356313705444336,32,44,53,113,26,28,45,31,2
970,34.378681898117065,45,44,55,121,24,26,43,33,2
971,34.39309215545654,49,43,50,100,24,29,38,33,2
972,34.41663122177124,49,45,55,106,26,29,41,34,2
973,34.43099331855774,48,44,55,114,23,26,45,30,2
974,34.45337176322937,49,42,54,123,22,26,43,33,2
975,34.47704863548279,42,44,63,123,25,26,46,32,2
976,34.49094820022583,41,40,64,129,25,24,44,33,2
977,34.513423204422,45,40,63,130,24,26,44,32,2
978,34.53673696517944,47,47,71,124,27,29,43,32,2
979,34.55140686035156,44,47,72,117,28,28,45,28,2
980,34.57337021827698,43,42,62,116,26,26,42,26,2
981,34.596755504608154,48,45,61,102,24,25,45,25,2
982,34.610827684402466,49,49,66,103,28,22,43,26,2
983,34.633307456970215,48,46,61,128,28,23,42,25,2
984,34.65666222572327,57,48,59,127,31,23,40,29,2
985,34.67100167274475,55,53,62,116,33,23,39,29,2
986,34.693873167037964,48,49,60,126,34,26,37,28,2
987,34.71658205986023,49,45,52,127,34,28,37,28,2
988,34.73097538948059,51,42,47,106,32,25,40,27,2
989,34.75364851951599,45,42,45,108,29,24,37,24,2
990,34.776549100875854,49,38,40,105,26,26,44,25,2
991,34.790979623794556,53,47,41,114,25,26,47,26,2
992,34.8134970664978,49,51,39,115,24,26,47,26,2
993,34.836525201797485,56,52,40,120,27,27,45,32,2
994,34.851301431655884,56,52,44,114,27,28,50,33,2
995,34.87339234352112,54,55,47,123,26,26,43,32,2
996,34.896522998809814,54,61,53,136,33,29,43,32,2
997,34.910876989364624,56,60,55,136,31,26,43,33,2
998,34.933408975601196,49,60,57,124,30,26,40,26,2
999,34.95665097236633,56,58,53,125,30,27,36,27,2
1000,34.97105574607849,60,59,58,122,32,27,38,30,2
1001,34.99331283569336,59,51,52,100,27,26,36,30,2
1002,35.01676821708679,57,48,53,98,29,26,35,32,2
1003,35.03107762336731,55,44,49,103,28,24,35,33,2
1004,35.05333924293518,53,46,51,109,29,28,37,33,2
1005,35.07664656639099,53,45,50,109,32,27,39,32,2
1006,35.09099864959717,52,43,49,116,31,24,36,33,2
1007,35.11413812637329,59,48,55,115,31,25,42,30,2
1008,35.136539936065674,61,56,69,123,32,26,44,32,2
1009,35.15923023223877,61,67,80,124,31,25,45,34,2
