time,chanel1,chanel2,chanel3,chanel4,chanel5,chanel6,chanel7,position
16.0081024169922,28,30,45,143,40,30,34,1
16.0287101268768,30,31,47,138,39,31,37,1
16.051260471344,34,35,48,143,39,35,40,1
16.0683870315552,34,32,43,130,38,32,36,1
16.0888540744782,36,33,46,115,42,35,39,1
16.1117463111877,34,33,43,117,45,37,40,1
16.1279969215393,34,33,40,112,45,37,39,1
16.1505169868469,31,30,36,100,46,33,35,1
16.1713664531708,34,33,39,100,47,34,38,1
16.1874530315399,32,32,36,115,48,31,37,1
16.2087466716766,33,27,40,119,45,26,33,1
16.2316234111786,33,28,42,138,45,28,30,1
16.2536199092865,33,26,41,136,43,28,31,1
16.2686684131622,34,27,41,211,48,33,33,1
16.2915465831757,34,36,42,209,48,39,36,1
16.3141694068909,33,43,41,201,50,46,42,1
16.3288726806641,34,44,39,193,48,44,43,1
16.3588311672211,35,45,39,209,57,45,45,1
16.3738534450531,31,44,39,138,52,43,45,1
16.3886902332306,35,43,39,132,54,43,50,1
16.4112110137939,38,37,42,158,52,36,45,1
16.4332456588745,37,37,43,171,58,36,45,1
16.4507572650909,40,35,43,156,48,36,42,1
16.4713048934937,40,33,42,146,51,34,42,1
16.4937198162079,39,24,41,159,54,30,36,1
16.5086710453033,37,27,41,143,53,31,36,1
16.5318911075592,37,24,37,131,50,31,37,1
16.5537798404694,31,30,38,129,54,30,37,1
16.5706539154053,30,30,44,146,53,32,37,1
16.591201543808,26,36,42,134,42,32,33,1
16.6141488552094,25,33,38,147,45,31,32,1
16.6306180953979,30,35,40,166,45,35,34,1
16.651291847229,30,37,40,171,52,36,34,1
16.673752784729,33,37,35,157,51,35,33,1
16.6926424503326,35,38,34,164,52,38,36,1
16.7114186286926,34,40,37,172,57,38,36,1
16.7339010238647,31,38,36,150,53,36,33,1
16.7504854202271,33,35,35,153,45,34,34,1
16.771372795105,29,40,32,160,50,39,35,1
16.7943217754364,29,34,35,151,48,35,31,1
16.8103923797607,30,38,34,118,41,35,32,1
16.8314085006714,31,38,35,129,42,35,34,1
16.8537406921387,30,38,37,129,43,36,31,1
16.8710594177246,32,32,36,121,38,30,30,1
16.8918101787567,31,32,39,128,39,31,30,1
16.9140472412109,32,26,36,133,37,30,30,1
16.9366769790649,31,28,35,135,40,30,33,1
16.9589262008667,31,27,34,134,38,27,35,1
16.9759268760681,32,30,35,134,39,28,34,1
16.9967801570892,34,35,36,152,42,26,36,1
17.0188767910004,33,36,37,147,43,26,37,1
17.0337688922882,34,35,37,138,43,26,34,1
17.0562434196472,35,33,36,147,42,25,32,1
17.0796632766724,34,34,39,149,46,27,38,1
17.0937469005585,34,32,35,136,48,26,36,1
17.1163918972015,34,38,40,146,56,30,40,1
17.138763666153,33,40,41,155,56,30,39,1
17.1538453102112,33,45,41,144,60,30,41,1
17.17644739151,34,46,41,146,56,28,37,1
17.1992774009705,35,47,46,152,60,30,40,1
17.2137508392334,33,42,45,178,58,26,35,1
17.2367281913757,32,40,45,177,62,28,36,1
17.2587759494782,31,33,43,173,63,29,38,1
17.2742047309875,31,30,46,192,65,30,38,1
17.2966454029083,31,26,40,179,60,32,38,1
17.3187611103058,34,25,39,155,58,34,39,1
17.3340919017792,35,25,38,137,56,31,37,1
17.3561944961548,36,28,41,146,55,31,34,1
17.3795268535614,34,26,37,135,52,30,34,1
17.3938794136047,35,29,36,136,53,30,35,1
17.4163737297058,36,29,35,156,52,29,34,1
17.4391262531281,37,32,35,156,48,31,36,1
17.4537403583527,36,28,34,148,44,33,34,1
17.4762930870056,37,35,47,162,54,35,38,1
17.498783826828,35,31,48,186,52,33,36,1
17.5136516094208,31,33,51,168,50,31,36,1
17.5363290309906,32,33,53,176,52,30,36,1
17.5591418743134,38,35,52,198,55,28,39,1
17.5746259689331,37,30,39,175,45,25,35,1
17.5965967178345,37,31,46,180,45,25,33,1
17.6187615394592,38,33,42,170,41,29,34,1
17.6338796615601,39,36,38,164,40,32,33,1
17.6563494205475,36,39,39,139,43,35,32,1
17.678822517395,35,40,41,145,48,37,33,1
17.7016570568085,36,39,34,98,48,37,33,1
17.7159249782562,37,40,36,118,55,38,36,1
17.7394731044769,34,39,36,128,55,36,37,1
17.76185297966,33,36,34,146,50,34,38,1
17.7766191959381,34,34,32,171,48,33,36,1
17.7992086410522,30,39,34,194,59,37,40,1
17.8207721710205,32,34,33,186,53,34,36,1
17.8367569446564,33,35,37,188,56,35,34,1
17.8588099479675,35,35,39,187,58,33,33,1
17.881463766098,36,35,45,184,61,32,32,1
17.8964281082153,37,30,44,159,55,31,28,1
17.9190299510956,33,34,45,180,58,32,34,1
17.9412875175476,33,34,43,175,55,31,33,1
17.9562938213348,32,36,52,171,58,35,36,1
17.9789032936096,35,39,49,147,54,37,38,1
18.0027132034302,34,38,48,146,51,34,37,1
18.0163147449493,36,36,48,132,55,33,34,1
18.0387706756592,37,32,49,129,55,32,34,1
18.0612494945526,34,30,40,129,50,30,32,1
18.0762431621552,34,30,39,132,50,29,27,1
18.0987730026245,37,31,43,160,51,33,30,1
18.1213989257812,37,30,46,155,47,34,29,1
18.1363356113434,36,35,44,146,46,35,35,1
18.1587564945221,38,37,43,151,46,33,37,1
18.1818640232086,37,39,42,161,45,34,42,1
18.1963820457458,37,38,42,141,48,36,43,1
18.2191941738129,34,40,44,168,49,36,44,1
18.2418477535248,35,36,48,181,52,36,40,1
18.2563483715057,35,34,51,174,52,36,36,1
18.2787997722626,33,31,50,156,55,35,35,1
18.3015325069427,31,32,48,171,49,31,33,1
18.3172686100006,36,34,47,179,46,37,44,1
18.3387722969055,34,33,40,171,42,36,42,1
18.361451625824,34,34,37,164,40,36,45,1
18.3763175010681,35,35,38,201,45,40,44,1
18.3991928100586,35,35,40,202,50,37,43,1
18.4214923381805,33,31,37,168,49,31,33,1
18.4377293586731,35,34,44,166,55,35,38,1
18.4587790966034,36,35,46,192,58,35,36,1
18.4816620349884,35,34,46,162,51,32,36,1
18.4963479042053,37,36,52,145,56,38,43,1
18.5187058448792,35,38,55,155,59,40,43,1
18.5416264533997,36,39,53,211,58,38,41,1
18.5563454627991,33,39,49,187,57,40,43,1
18.5791399478912,31,37,47,187,56,38,43,1
18.6019010543823,29,40,40,186,50,36,39,1
18.6173555850983,34,40,39,180,49,35,42,1
18.6389112472534,34,41,40,119,44,35,40,1
18.6614363193512,33,40,40,125,48,35,38,1
18.6847352981567,36,40,41,136,52,37,38,1
18.7007131576538,36,34,41,139,47,32,35,1
18.7214915752411,34,36,37,144,44,28,32,1
18.7449073791504,36,31,33,144,46,31,31,1
18.7587404251099,37,31,36,167,40,29,31,1
18.7821905612946,37,35,41,151,40,34,29,1
18.8045434951782,39,41,48,161,49,35,34,1
18.8198478221893,37,37,48,183,49,35,34,1
18.8414263725281,35,38,52,186,51,34,35,1
18.8646659851074,36,41,50,168,51,35,37,1
18.8787822723389,38,41,51,166,52,29,39,1
18.9014990329742,35,37,40,158,44,30,35,1
18.9246757030487,37,36,45,126,45,30,32,1
18.9387741088867,38,36,41,113,40,28,29,1
18.9615342617035,40,31,41,126,43,30,27,1
18.9848308563232,35,25,36,141,40,31,25,1
18.999086856842,34,24,36,136,43,31,26,1
19.0213792324066,34,24,33,145,50,36,27,1
19.0450854301453,33,24,37,151,53,35,30,1
19.0587768554688,27,25,38,143,53,33,29,1
19.082396030426,30,25,35,135,53,38,30,1
19.1045150756836,31,32,37,126,56,39,34,1
19.1188390254974,33,33,35,193,55,36,33,1
19.1417067050934,39,36,40,196,55,35,31,1
19.1650145053864,40,38,47,201,60,40,37,1
19.1795973777771,39,38,53,220,57,36,35,1
19.2015614509583,39,31,54,232,53,33,31,1
19.2247831821442,36,34,56,174,57,37,38,1
19.2391290664673,29,32,52,176,54,39,38,1
19.2617752552032,31,31,47,194,46,35,37,1
19.2845275402069,31,34,41,177,49,34,37,1
19.2997221946716,33,35,40,164,50,35,38,1
19.3213424682617,33,35,39,198,46,34,32,1
19.3445572853088,34,35,35,190,50,35,34,1
19.3587713241577,37,37,33,160,51,35,31,1
19.3820908069611,35,36,36,180,48,37,33,1
19.4046587944031,35,38,41,194,55,40,34,1
19.4188225269318,39,33,45,183,61,42,38,1
19.4413733482361,39,33,47,182,58,39,41,1
19.46497631073,36,30,49,185,61,39,40,1
19.4790613651276,37,32,49,175,61,39,42,1
19.5013644695282,35,31,46,163,56,36,42,1
19.5245606899261,31,33,44,134,43,32,39,1
19.5387670993805,32,30,43,133,47,33,34,1
19.5614504814148,32,34,43,159,47,32,36,1
19.5845468044281,32,30,44,151,49,33,35,1
19.6073303222656,32,29,44,156,48,32,34,1
19.6214723587036,30,29,40,161,45,31,34,1
19.6442437171936,29,34,40,162,44,32,39,1
19.6669688224792,31,33,39,148,53,35,41,1
19.6809000968933,30,36,38,178,54,31,44,1
19.7048585414886,31,37,38,174,55,35,48,1
19.7270157337189,36,38,42,168,58,36,46,1
19.7426271438599,37,38,45,187,64,37,43,1
19.7647922039032,36,36,44,186,55,36,37,1
19.7873122692108,37,33,43,147,52,38,33,1
19.8014705181122,37,35,46,147,54,38,29,1
19.8249838352203,35,39,44,152,54,39,29,1
19.8473088741303,35,41,43,138,44,37,31,1
19.8615069389343,35,45,41,135,42,35,33,1
19.8846549987793,35,45,39,130,40,33,31,1
19.9065463542938,34,47,35,162,41,37,33,1
19.9216485023499,35,44,42,167,44,38,35,1
19.9446368217468,34,39,41,160,45,38,35,1
19.9670302867889,30,39,41,168,50,41,38,1
19.9809341430664,29,39,43,167,51,42,40,1
20.0046460628509,31,33,43,138,50,38,40,1
20.0266342163086,31,31,37,133,48,36,39,1
20.0410444736481,29,34,38,169,49,39,42,1
20.0645086765289,31,29,39,158,42,36,39,1
20.0874817371368,30,34,38,168,48,41,41,1
20.1018095016479,30,37,42,173,56,45,40,1
20.1242778301239,31,38,39,170,56,45,38,1
20.1470122337341,32,37,42,136,60,43,37,1
20.1617791652679,33,39,42,142,65,44,36,1
20.1846866607666,34,37,44,143,64,41,36,1
20.2071478366852,32,35,41,144,54,36,34,1
20.2215580940247,32,35,46,149,58,36,38,1
20.2521300315857,32,36,46,156,64,37,38,1
20.2671065330505,30,33,46,149,62,36,39,1
20.2816257476807,33,32,48,145,62,33,37,1
20.3047454357147,33,31,46,134,63,34,38,1
20.3269982337952,34,32,42,144,60,32,36,1
20.3415086269379,34,30,42,185,54,31,36,1
20.3645889759064,35,32,47,195,62,34,36,1
20.3872170448303,33,31,43,196,59,35,35,1
20.4014632701874,36,31,42,195,59,32,34,1
20.4248776435852,35,28,43,181,57,35,33,1
20.4469530582428,37,30,41,159,55,34,29,1
20.4615359306335,38,30,38,145,47,31,30,1
20.4848453998566,39,31,38,144,47,29,32,1
20.5070734024048,38,31,41,150,49,31,35,1
20.5296568870544,34,32,38,148,46,28,36,1
20.5452704429626,32,28,35,132,42,30,36,1
20.5669293403625,28,31,34,146,45,30,33,1
20.5970866680145,27,30,35,145,44,29,32,1
20.6046230792999,24,34,35,142,43,32,35,1
20.6274054050446,28,39,36,152,50,33,36,1
20.6502737998962,36,44,39,140,53,31,37,1
20.6645667552948,41,43,35,126,49,33,36,1
20.6873633861542,41,43,40,131,52,36,36,1
20.7096192836761,42,39,38,139,50,33,32,1
20.7251703739166,41,34,37,130,45,33,31,1
20.7465515136719,34,28,35,135,43,37,31,1
20.769585609436,28,26,37,130,42,36,33,1
20.7846078872681,31,25,32,146,38,33,32,1
20.8071308135986,31,29,38,152,40,34,34,1
20.8299355506897,33,30,37,168,40,34,32,1
20.8437736034393,37,31,38,182,41,31,33,1
20.8666934967041,41,32,42,183,42,35,36,1
20.8894736766815,45,31,44,166,42,36,37,1
20.9042665958405,44,31,37,155,41,33,32,1
20.9270865917206,43,29,39,150,43,33,33,1
20.9493291378021,40,30,39,122,40,32,32,1
20.9634122848511,44,29,41,129,43,26,29,1
20.9866423606873,40,33,39,126,45,28,30,1
21.0098233222961,39,32,43,141,50,36,35,1
21.0237669944763,39,31,43,126,50,35,35,1
21.0468981266022,40,32,43,129,49,35,37,1
21.0699188709259,33,32,39,165,49,36,37,1
21.0839216709137,34,31,42,178,50,39,39,1
21.1070747375488,35,30,38,165,43,31,36,1
21.1295368671417,32,32,40,171,44,35,35,1
21.1439344882965,34,31,43,180,47,39,37,1
21.1674077510834,36,30,41,145,44,38,36,1
21.1896734237671,34,26,39,130,39,34,35,1
21.2040677070618,36,31,44,136,54,37,37,1
21.2270205020905,36,35,46,131,56,32,40,1
21.2497811317444,33,35,44,118,54,29,37,1
21.2638001441956,31,36,43,113,55,30,40,1
21.2869713306427,33,39,44,116,56,30,39,1
21.3095777034759,36,38,41,110,41,27,39,1
21.3240144252777,35,36,37,110,39,35,38,1
21.3471083641052,37,34,33,132,38,35,36,1
21.3697338104248,35,32,32,140,40,33,34,1
21.3843531608582,37,33,35,137,40,34,35,1
21.4071102142334,31,34,35,148,42,35,33,1
21.4311385154724,29,31,35,155,38,27,31,1
21.4439213275909,35,36,46,167,44,31,34,1
21.467618227005,37,36,44,160,42,31,35,1
21.4897196292877,36,33,40,162,43,30,32,1
21.5122122764587,39,30,39,151,46,31,37,1
21.5271649360657,42,31,37,136,46,34,38,1
21.5497977733612,35,29,26,98,41,32,36,1
21.572075843811,36,30,25,103,38,31,37,1
21.5871565341949,32,30,33,108,45,33,39,1
21.609570980072,32,34,34,108,41,32,33,1
21.632351398468,31,36,36,120,41,30,31,1
21.647084236145,31,38,42,130,49,34,33,1
21.669741153717,32,38,42,124,50,34,35,1
21.6929445266724,32,44,38,130,43,35,35,1
21.707638502121,33,43,42,142,49,37,38,1
21.7297794818878,36,41,41,146,53,37,38,1
21.7522675991058,37,41,35,148,56,35,39,1
21.7668302059174,34,41,36,151,64,35,36,1
21.7898497581482,37,36,35,151,64,35,34,1
21.812135219574,36,36,27,138,59,36,30,1
21.8268764019012,33,34,38,138,58,39,34,1
21.8494417667389,33,30,37,127,50,36,32,1
21.8721823692322,33,30,38,133,47,39,32,1
21.8867840766907,33,32,48,142,52,38,35,1
21.9097349643707,33,31,50,147,51,34,36,1
21.9328258037567,33,35,47,141,50,35,40,1
21.9466342926025,35,37,48,162,52,38,41,1
21.9695243835449,34,40,47,159,43,35,40,1
21.9923977851868,34,38,40,138,41,39,42,1
22.0064544677734,32,40,40,143,43,42,42,1
22.0297818183899,32,37,36,137,41,38,37,1
22.0530540943146,29,35,39,114,39,34,34,1
22.0663893222809,36,37,50,152,52,37,41,1
22.0895369052887,37,38,46,180,54,31,40,1
22.1121056079865,36,37,49,189,55,29,39,1
22.1264717578888,36,39,51,207,61,32,39,1
22.1499223709106,37,38,53,244,63,33,42,1
22.172132730484,32,35,43,223,54,30,35,1
22.1865088939667,33,35,46,225,61,33,41,1
22.2095775604248,35,37,43,212,63,36,41,1
22.2324340343475,35,34,42,197,62,35,40,1
22.2468457221985,38,34,35,164,57,34,41,1
22.2692377567291,41,33,41,181,58,34,41,1
22.2991232872009,38,34,42,187,55,35,36,1
22.3066132068634,37,33,43,204,53,30,38,1
22.3297090530396,39,36,45,241,51,36,40,1
22.3522119522095,38,39,47,256,57,38,39,1
22.3666639328003,37,39,44,261,59,37,39,1
22.3898935317993,38,39,45,279,56,37,42,1
22.4122376441956,38,41,43,269,53,40,41,1
22.4265158176422,39,43,47,249,53,36,44,1
22.4495453834534,39,41,46,244,48,38,43,1
22.4738645553589,38,42,48,235,48,40,46,1
22.4949266910553,37,38,45,200,47,41,43,1
22.5095822811127,39,36,46,204,50,40,44,1
22.5322451591492,34,35,47,220,50,39,39,1
22.5548939704895,34,36,49,195,52,35,39,1
22.5696516036987,33,36,47,185,51,34,37,1
22.5921177864075,35,37,50,200,55,32,33,1
22.6149008274078,35,35,51,219,58,29,30,1
22.6295680999756,34,37,45,213,56,32,32,1
22.6522080898285,38,38,45,231,60,33,32,1
22.6746363639832,38,41,43,258,58,33,30,1
22.6896107196808,38,43,44,267,59,33,34,1
22.7120785713196,38,46,43,255,56,33,35,1
22.7346866130829,38,41,41,249,55,30,35,1
22.7488882541657,36,38,61,276,53,31,35,1
22.77210688591,36,38,74,272,53,32,36,1
22.7945818901062,42,34,76,280,52,30,33,1
22.8089504241943,43,28,82,315,62,31,33,1
22.8325502872467,43,31,83,305,66,30,32,1
22.8546919822693,44,35,70,286,64,32,36,1
22.8690252304077,42,33,55,271,67,32,40,1
22.892192363739,38,34,48,232,62,34,41,1
22.9147706031799,34,37,41,176,55,37,46,1
22.9288985729218,38,37,39,205,55,39,46,1
22.9521353244782,34,32,36,202,59,39,43,1
22.9749095439911,37,32,37,219,57,38,40,1
22.989351272583,36,31,40,233,61,36,39,1
23.0121307373047,37,29,40,246,61,30,35,1
23.034811258316,34,30,38,229,58,30,37,1
23.0491075515747,35,32,38,221,56,28,36,1
23.0721871852875,35,35,39,205,55,32,40,1
23.0952265262604,34,34,35,201,47,34,38,1
23.108971118927,36,34,35,190,41,36,35,1
23.1332628726959,38,33,39,189,42,34,35,1
23.1540069580078,37,32,40,172,36,35,34,1
23.1765277385712,41,27,42,161,38,32,31,1
23.1933217048645,41,41,50,182,62,49,48,1
23.2153844833374,37,44,47,178,63,50,48,1
23.2364816665649,36,43,44,232,68,50,47,1
23.2588732242584,36,43,46,238,77,52,54,1
23.2739577293396,32,44,43,251,77,52,53,1
23.2959899902344,33,35,35,235,61,35,42,1
23.3132765293121,32,35,36,231,64,35,45,1
23.3342018127441,29,35,36,220,56,35,44,1
23.356486082077,28,34,37,228,47,32,38,1
23.3737466335297,26,37,37,231,44,31,39,1
23.3943016529083,28,34,36,228,43,36,36,1
23.4170162677765,28,33,40,240,50,34,33,1
23.4334573745728,30,39,50,213,62,37,37,1
23.4544217586517,31,40,50,204,61,36,36,1
23.4767835140228,34,38,52,195,66,41,38,1
23.493292093277,31,38,51,185,65,38,37,1
23.5141234397888,32,38,49,170,60,36,36,1
23.5364727973938,31,32,39,175,49,33,32,1
23.5533573627472,30,31,40,202,55,32,32,1
23.5740149021149,32,29,43,191,60,25,31,1
23.5973744392395,36,33,46,215,61,28,36,1
23.6138551235199,37,34,47,236,59,30,36,1
23.6343009471893,41,36,48,215,60,34,38,1
23.6565189361572,42,37,48,186,55,37,41,1
23.6732740402222,38,37,44,196,44,37,38,1
23.694445848465,35,37,45,193,49,38,38,1
23.7165429592133,35,35,46,211,59,40,41,1
23.7332339286804,33,36,46,248,61,39,40,1
23.7542004585266,31,37,47,255,64,41,41,1
23.776430606842,32,39,53,272,65,42,41,1
23.7939245700836,32,37,49,259,61,38,37,1
23.8139114379883,33,38,46,224,49,35,36,1
23.8378078937531,31,35,46,179,45,32,34,1
23.8534440994263,34,33,43,197,39,28,32,1
23.8768191337585,36,28,43,170,41,28,31,1
23.8964908123016,37,28,48,165,40,31,32,1
23.9139001369476,37,39,52,168,65,36,36,1
23.9343066215515,37,40,51,195,66,37,38,1
23.9569666385651,36,39,54,184,69,36,34,1
23.9740099906921,33,43,49,177,70,37,37,1
23.9944427013397,32,44,49,182,75,39,42,1
24.0169103145599,33,34,52,215,59,33,36,1
24.0334413051605,31,39,52,194,57,37,37,1
24.0540664196014,31,39,48,174,51,36,39,1
24.0765330791473,31,40,54,190,54,38,38,1
24.0939531326294,33,40,50,184,50,37,36,1
24.1139764785767,31,39,40,150,47,37,37,1
24.1365897655487,34,34,38,170,44,33,36,1
24.154444694519,32,35,38,173,47,32,35,1
24.1740515232086,35,29,30,157,46,32,34,1
24.1967263221741,34,25,33,173,47,30,35,1
24.2137041091919,34,34,38,186,53,34,38,1
24.2342133522034,32,35,42,172,55,34,36,1
24.2577221393585,33,35,45,165,56,37,40,1
24.2734844684601,39,40,45,280,58,36,44,1
24.2941920757294,42,44,44,277,57,34,43,1
24.3164939880371,42,40,42,264,50,35,41,1
24.3344299793243,46,38,43,278,56,37,41,1
24.3540899753571,46,39,42,290,55,37,39,1
24.3768990039825,40,39,46,197,63,46,43,1
24.3989059925079,35,35,42,205,61,49,43,1
24.4135212898254,39,36,41,218,77,52,47,1
24.4368588924408,34,39,37,197,73,51,48,1
24.4589295387268,34,42,42,209,78,56,50,1
24.4739742279053,34,40,38,220,68,49,44,1
24.4965827465057,37,45,47,215,77,52,48,1
24.5190041065216,33,45,47,206,65,49,45,1
24.5342259407043,32,45,47,214,71,49,48,1
24.5575301647186,31,43,48,206,72,43,49,1
24.5789563655853,33,42,53,193,78,40,48,1
24.5940539836884,37,42,55,223,74,36,45,1
24.6168642044067,38,40,57,222,74,32,43,1
24.6390850543976,39,47,67,217,78,42,49,1
24.6542327404022,40,48,64,198,73,41,46,1
24.6766173839569,36,52,61,198,69,46,49,1
24.699120759964,29,48,56,146,66,45,46,1
24.7140200138092,27,49,56,171,67,46,47,1
24.7363893985748,27,44,48,172,59,43,41,1
24.759241104126,26,42,49,182,58,43,40,1
24.7742927074432,28,35,45,170,56,40,36,1
24.7966723442078,26,34,44,203,57,38,35,1
24.8191208839417,30,34,41,188,56,37,34,1
24.8336355686188,32,33,38,185,59,32,35,1
24.8565046787262,34,32,37,175,61,30,37,1
24.8791120052338,34,33,36,191,58,28,37,1
24.8940525054932,35,32,37,165,55,28,40,1
24.9164202213287,33,36,41,155,50,32,48,1
24.9389989376068,28,31,37,182,41,29,44,1
24.9614932537079,29,34,43,192,44,33,47,1
24.9764878749847,30,38,44,183,54,36,50,1
24.9989020824432,31,38,44,213,54,36,46,1
25.014416217804,35,33,44,220,57,31,38,1
25.0367212295532,38,34,46,201,59,32,39,1
25.058934211731,35,36,46,222,58,32,35,1
25.0740358829498,35,30,45,222,48,30,33,1
25.0976145267487,37,31,49,197,49,28,33,1
25.1188623905182,34,34,50,206,57,34,35,1
25.136866569519,36,43,51,217,63,40,41,1
25.156476020813,36,38,44,187,62,39,38,1
25.1797797679901,36,40,44,171,65,38,39,1
25.1935646533966,35,43,47,170,73,45,50,1
25.2160265445709,37,45,46,165,71,42,54,1
25.2393832206726,36,38,45,165,67,39,51,1
25.2540788650513,36,45,48,188,66,41,53,1
25.2765762805939,40,46,55,209,71,44,55,1
25.2989645004272,41,43,51,218,65,40,46,1
25.3214671611786,41,38,58,203,64,40,46,1
25.3366048336029,42,37,59,190,64,40,45,1
25.3589489459991,44,28,60,178,63,36,43,1
25.3816394805908,39,29,54,170,55,36,40,1
25.397914648056,39,29,53,169,54,36,39,1
25.4195568561554,36,29,41,174,49,35,32,1
25.4416558742523,34,29,40,173,46,33,33,1
25.4568736553192,33,30,41,196,46,35,34,1
25.4791054725647,32,27,41,188,44,32,30,1
25.5018303394318,34,31,40,214,46,30,30,1
25.5165786743164,39,31,39,232,41,28,28,1
25.5389561653137,38,29,45,235,44,27,25,1
25.5614998340607,38,28,45,240,44,27,24,1
25.5788011550903,43,29,47,290,53,27,23,1
25.5989499092102,40,26,48,277,51,29,26,1
25.6214988231659,37,26,48,274,53,31,25,1
25.6367466449738,36,29,45,299,60,31,26,1
25.6590204238892,36,37,44,281,72,33,35,1
25.6814861297607,31,36,41,261,69,32,37,1
25.6965107917786,32,38,40,275,79,31,38,1
25.7190668582916,29,38,40,269,78,28,39,1
25.7419743537903,33,36,46,251,70,30,41,1
25.7566230297089,34,35,54,277,77,37,45,1
25.77885222435,37,37,56,271,76,38,44,1
25.8015265464783,34,34,55,250,72,39,43,1
25.8166170120239,39,40,62,250,77,42,45,1
25.8389940261841,38,41,56,252,78,42,47,1
25.8621203899384,37,38,50,236,62,36,40,1
25.8766288757324,34,46,47,229,62,41,42,1
25.8991994857788,41,47,51,245,56,40,42,1
25.9218733310699,38,44,44,250,52,37,39,1
25.9369118213654,40,52,48,257,54,43,40,1
25.9586007595062,39,50,44,246,48,39,35,1
25.9817106723785,39,41,46,246,46,35,38,1
25.9969534873962,41,48,48,234,50,39,42,1
26.0192785263062,44,49,50,240,46,39,43,1
26.0412299633026,44,40,46,225,45,34,40,1
26.0561301708221,44,44,47,221,53,37,46,1
26.0790095329285,46,47,45,263,53,37,47,1
26.1017179489136,41,38,41,265,51,36,46,1
26.1165773868561,37,39,39,276,60,42,49,1
26.1460480690002,34,42,38,281,58,41,47,1
26.1614112854004,36,41,45,295,58,42,45,1
26.1767513751984,32,39,47,252,57,42,39,1
26.1986017227173,33,40,47,257,57,44,37,1
26.222076177597,37,35,46,233,50,40,32,1
26.236554145813,40,32,51,238,54,40,33,1
26.2590889930725,41,30,48,212,53,38,33,1
26.2823824882507,43,29,49,227,56,38,32,1
26.3041293621063,42,28,49,216,52,34,32,1
26.3191421031952,38,35,52,216,59,40,38,1
26.3415498733521,38,35,48,212,56,40,38,1
26.3640718460083,38,35,52,231,55,39,39,1
26.3790519237518,36,48,54,228,59,44,48,1
26.4014518260956,40,50,58,269,59,42,48,1
26.4239978790283,39,46,53,262,53,35,43,1
26.4391467571259,34,53,58,294,59,40,50,1
26.4615437984467,40,58,59,299,59,45,51,1
26.4850325584412,39,51,59,313,55,41,45,1
26.4991900920868,41,60,57,279,54,50,57,1
26.5216336250305,45,64,62,285,53,52,59,1
26.5439720153809,47,61,59,254,54,51,56,1
26.5593521595001,46,62,56,264,60,49,56,1
26.5815513134003,45,61,55,239,60,47,55,1
26.6040306091309,40,52,54,252,63,38,43,1
26.6190769672394,40,50,50,247,62,36,44,1
26.6415205001831,40,47,48,274,60,38,40,1
26.6646323204041,37,40,48,273,50,37,36,1
26.6795167922974,38,37,45,272,49,37,38,1
26.7168345451355,38,34,43,271,47,39,38,1
26.7316823005676,40,32,50,277,53,39,37,1
26.746598482132,47,33,49,246,50,35,41,1
26.7685062885284,46,38,47,232,52,33,41,1
26.7842814922333,48,42,50,234,57,37,40,1
26.7997024059296,48,45,47,238,61,38,41,1
26.8215193748474,45,45,40,248,57,36,39,1
26.8441474437714,45,45,45,255,60,39,40,1
26.8589653968811,52,45,47,279,63,42,44,1
26.8821895122528,72,45,42,262,59,39,43,1
26.9040811061859,89,42,43,258,58,37,43,1
26.9186716079712,107,47,42,242,56,37,45,1
26.9415233135223,119,49,40,217,52,36,46,1
26.9640438556671,133,45,44,199,50,32,47,1
26.9790437221527,124,42,44,216,51,30,48,1
27.0011150836945,115,41,50,200,50,31,47,1
27.0242676734924,98,36,52,205,53,33,44,1
27.0389564037323,79,31,48,210,53,33,42,1
27.0615265369415,45,29,41,201,48,32,36,1
27.0840344429016,39,30,45,188,47,34,34,1
27.0992758274078,36,32,42,197,44,32,33,1
27.1217346191406,36,40,39,210,40,33,33,1
27.1440329551697,35,41,49,232,46,33,32,1
27.1589744091034,35,43,51,217,50,34,32,1
27.1825201511383,34,44,50,225,51,31,32,1
27.2040073871613,35,42,48,214,52,33,33,1
27.2272636890411,34,34,48,211,54,30,29,1
27.2416415214539,35,33,41,183,52,31,30,1
27.2641644477844,36,30,37,187,50,33,35,1
27.2893543243408,36,29,37,178,50,34,36,1
27.3018550872803,32,29,39,193,53,34,37,1
27.3242793083191,35,32,44,246,56,38,42,1
27.3466103076935,35,30,46,250,53,34,40,1
27.3617427349091,34,32,49,264,53,35,38,1
27.3846035003662,36,31,50,300,52,35,40,1
27.4067327976227,34,32,46,291,49,34,38,1
27.4219877719879,31,33,41,238,42,29,33,1
27.4440102577209,29,32,44,233,49,32,33,1
27.4672226905823,28,31,42,261,50,30,29,1
27.4819495677948,29,32,49,225,55,32,29,1
27.5040538311005,33,35,52,228,55,32,30,1
27.5265960693359,37,35,56,239,57,35,33,1
27.5413339138031,37,36,49,260,52,34,34,1
27.564338684082,37,37,48,206,50,36,38,1
27.5866761207581,38,38,41,246,46,35,41,1
27.6020913124084,35,35,38,245,49,36,40,1
27.6240320205688,34,32,34,235,48,35,39,1
27.6465849876404,38,30,39,218,46,33,38,1
27.6615400314331,37,28,39,231,47,30,33,1
27.6840837001801,36,29,44,192,47,33,26,1
27.7066507339478,36,28,44,245,45,36,27,1
27.7218389511108,36,29,45,252,45,35,26,1
27.7436330318451,38,33,56,261,50,35,29,1
27.7662727832794,42,35,59,289,66,42,38,1
27.7819573879242,44,36,54,288,64,39,38,1
27.8042919635773,45,34,55,234,64,36,38,1
27.8265779018402,44,35,57,270,69,37,38,1
27.8415818214417,42,31,44,266,69,36,37,1
27.8641762733459,38,29,39,239,54,31,29,1
27.8869278430939,37,38,39,237,59,35,29,1
27.902096748352,39,46,46,305,61,35,27,1
27.9240882396698,39,46,43,281,54,36,29,1
27.9467279911041,38,48,48,284,53,36,31,1
27.9618904590607,38,47,48,279,53,33,32,1
27.9842908382416,36,42,51,288,50,32,34,1
28.0066981315613,33,35,45,227,50,35,38,1
28.0211043357849,32,32,44,233,53,34,38,1
28.0441164970398,34,34,45,227,53,39,40,1
28.066647529602,38,35,48,230,60,41,45,1
28.0815372467041,40,32,50,257,60,38,43,1
28.104186296463,41,40,51,258,70,43,48,1
28.1267762184143,45,41,50,248,68,43,46,1
28.1499557495117,41,40,48,250,68,39,43,1
28.1641976833343,38,41,50,310,63,37,38,1
28.1868615150452,38,40,49,278,65,37,39,1
28.2114653587341,38,31,47,276,53,27,30,1
28.2237141132355,34,28,51,297,56,28,33,1
28.2466466426849,37,28,46,295,54,28,32,1
28.2701807022095,38,29,42,224,55,28,31,1
28.2849700450897,35,31,36,230,52,27,30,1
28.3066163063049,34,32,44,260,55,31,32,1
28.3297829627991,31,34,42,223,52,31,30,1
28.3435909748077,30,33,45,216,52,30,29,1
28.367030620575,26,39,44,230,48,35,29,1
28.3899607658386,28,40,45,288,49,37,31,1
28.4041113853455,27,43,38,263,46,35,29,1
28.4266133308411,31,41,37,264,45,33,28,1
28.4499757289886,32,42,36,262,46,34,33,1
28.4641070365906,35,37,42,256,48,35,35,1
28.4867000579834,43,37,54,255,54,37,40,1
28.5098831653595,47,36,61,274,56,36,41,1
28.5241529941559,46,38,63,302,60,38,43,1
28.5462243556976,45,39,63,312,61,40,42,1
28.5703263282776,45,39,59,315,59,37,42,1
28.5841436386108,36,39,51,267,52,32,37,1
28.6069839000702,32,38,46,244,50,32,35,1
28.6298804283142,31,37,47,236,56,36,36,1
28.6441447734833,33,36,54,243,64,35,34,1
28.6665506362915,33,32,56,253,65,36,33,1
28.690089225769,33,30,55,253,66,37,31,1
28.7040810585022,35,30,52,271,69,41,38,1
28.7266447544098,33,31,48,259,62,38,37,1
28.7502801418304,31,31,40,242,52,36,35,1
28.7641227245331,31,32,41,250,51,35,34,1
28.7867064476013,33,39,51,250,54,41,42,1
28.8100702762604,30,38,52,229,45,35,36,1
28.8240356445312,30,37,51,225,42,35,37,1
28.8548221588135,30,38,52,249,51,38,40,1
28.8698687553406,33,37,57,231,58,37,41,1
28.8843157291412,33,31,48,218,52,33,36,1
28.9074151515961,32,36,52,248,68,36,41,1
28.93035364151,35,46,53,227,73,40,45,1
28.9442100524902,35,49,54,229,69,42,45,1
28.9667887687683,33,51,48,227,70,45,47,1
28.9902157783508,30,50,48,256,74,42,47,1
29.0040118694305,30,48,44,219,64,43,47,1
29.0269889831543,29,41,51,279,64,39,43,1
29.0500264167786,32,36,56,330,65,39,42,1
29.0643541812897,34,35,56,324,60,34,38,1
29.0862867832184,35,36,55,307,56,35,38,1
29.1098601818085,37,39,54,317,52,33,32,1
29.1328771114349,36,41,58,307,50,33,32,1
29.1466324329376,32,39,53,224,45,27,28,1
29.1699206829071,33,38,53,231,50,28,31,1
29.1929225921631,33,39,55,235,58,32,32,1
29.2068963050842,31,34,54,241,61,32,33,1
29.2297809123993,33,31,42,197,58,32,32,1
29.253310918808,36,34,48,202,58,34,35,1
29.2666268348694,33,38,50,261,57,34,33,1
29.2917227745056,34,35,55,341,56,33,40,1
29.3125507831573,35,39,59,334,68,42,50,1
29.3266031742096,36,41,59,338,69,42,50,1
29.3644862174988,35,46,53,347,73,48,51,1
29.3788197040558,38,46,58,303,73,50,56,1
29.3936977386475,39,49,55,198,70,48,50,1
29.4113998413086,45,47,56,197,56,43,42,1
29.4318633079529,44,52,66,218,63,55,52,1
29.4467566013336,47,58,71,310,61,56,57,1
29.4773242473602,51,54,66,302,58,54,52,1
29.4917347431183,61,52,63,306,57,55,52,1
29.5067007541656,73,53,57,320,57,55,57,1
29.5291175842285,94,52,46,308,53,46,52,1
29.5527687072754,103,41,37,215,53,41,43,1
29.5669219493866,125,43,55,311,62,47,53,1
29.5895199775696,136,44,58,305,65,47,56,1
29.6117823123932,136,41,60,358,66,47,52,1
29.6266303062439,124,34,66,359,66,43,51,1
29.6490004062653,116,34,68,369,64,41,49,1
29.6719906330109,91,40,53,292,56,33,40,1
29.6862552165985,63,39,50,322,53,31,38,1
29.7085912227631,44,43,48,243,55,28,34,1
29.7320337295532,42,42,43,229,56,28,33,1
29.7469627857208,43,42,39,218,56,30,35,1
29.7695429325104,39,35,39,215,52,31,32,1
29.7917397022247,41,39,40,163,57,36,35,1
29.8067038059235,41,38,39,155,57,40,39,1
29.8291647434235,36,39,36,229,53,40,39,1
29.8515913486481,38,44,37,204,57,42,39,1
29.8667175769806,38,45,40,238,61,42,41,1
29.8891363143921,41,43,38,244,59,40,37,1
29.9116108417511,43,41,37,252,60,35,34,1
29.9265546798706,42,40,37,211,59,35,33,1
29.949339389801,40,42,44,224,59,37,40,1
29.9719080924988,48,44,48,211,56,38,42,1
29.9867885112762,48,54,48,216,64,44,44,1
30.0092217922211,58,55,54,231,64,46,47,1
30.031653881073,67,58,54,223,65,45,46,1
30.0545408725739,81,62,47,212,62,43,43,1
30.0693044662476,82,62,41,214,63,42,42,1
30.0916354656219,95,52,42,245,55,35,38,1
30.1144790649414,88,51,35,233,48,34,32,1
30.128963470459,85,48,38,220,51,35,38,1
30.151636838913,82,37,38,236,46,33,36,1
30.1743693351746,85,32,39,265,49,37,37,1
30.1892023086548,87,34,42,234,50,37,39,1
30.2117245197296,95,38,48,237,52,35,43,1
30.2342314720154,100,38,58,304,62,33,40,1
30.2492518424988,97,36,59,322,62,31,38,1
30.2718646526337,92,41,64,290,63,35,46,1
30.2943637371063,82,39,66,335,60,34,47,1
30.3090648651123,75,38,64,345,62,38,49,1
30.3533415794373,69,38,57,315,60,41,54,1
30.3557631969452,61,44,59,296,60,44,56,1
30.3692543506622,59,43,58,313,64,43,52,1
30.3924112319946,52,42,53,265,65,45,50,1
30.4149553775787,49,42,53,269,65,43,47,1
30.4292104244232,40,40,50,244,56,41,40,1
30.4525799751282,42,36,58,252,59,47,43,1
30.4748556613922,41,33,56,250,50,44,40,1
30.4892821311951,39,34,56,249,55,43,42,1
30.5123295783997,41,34,57,277,50,43,42,1
30.534829378128,55,38,60,291,48,44,43,1
30.5491514205933,69,35,52,285,47,33,38,1
30.572446346283,77,33,53,277,50,31,38,1
30.5948693752289,93,33,60,297,54,30,37,1
30.6094992160797,100,33,62,280,53,27,39,1
30.6346943378448,99,29,58,274,54,24,40,1
30.6552939414978,91,32,53,267,57,28,41,1
30.6692414283752,90,36,50,263,58,34,45,1
30.6923956871033,78,36,47,304,50,34,46,1
30.7154633998871,69,40,48,269,51,33,42,1
30.7288470268249,60,39,50,254,56,36,43,1
30.7523882389069,58,37,52,283,53,36,41,1
30.7748262882233,48,34,58,310,52,29,36,1
30.7894213199615,43,38,52,252,56,31,37,1
30.8125858306885,40,33,49,256,60,30,37,1
30.8348886966705,40,33,49,290,57,28,32,1
30.8493359088898,38,36,47,277,54,25,31,1
30.872385263443,39,44,48,237,68,36,43,1
30.8948400020599,41,44,54,288,73,39,48,1
30.9090669155121,41,45,53,311,69,39,48,1
30.9322319030762,43,46,54,292,73,41,51,1
30.9552636146545,45,44,61,310,84,45,54,1
30.9694919586182,43,37,52,364,71,38,44,1
30.9924335479736,39,34,47,324,62,36,35,1
31.0159707069397,40,34,49,295,63,37,36,1
31.0379061698914,39,35,48,296,58,37,37,1
31.0528872013092,36,36,45,258,40,33,32,1
31.0747864246368,38,35,52,172,43,34,33,1
31.0978455543518,35,33,52,159,43,29,32,1
31.1123101711273,39,36,51,176,43,30,34,1
31.1347770690918,46,36,51,271,51,27,31,1
31.1572012901306,47,34,54,270,57,28,32,1
31.1719343662262,46,34,50,271,56,27,31,1
31.2028932571411,47,35,49,300,58,34,34,1
31.2174561023712,45,32,55,322,61,33,34,1
31.232501745224,44,35,55,249,55,34,35,1
31.2548792362213,41,36,46,249,49,37,37,1
31.2772881984711,44,43,52,245,55,43,46,1
31.2916698455811,44,43,54,254,54,40,44,1
31.3148410320282,42,45,45,218,53,41,44,1
31.337776184082,38,50,49,200,64,46,48,1
31.3511853218079,38,52,51,261,69,45,47,1
31.3748564720154,40,51,65,311,72,44,40,1
31.3980805873871,44,57,72,303,86,54,48,1
31.4119725227356,42,58,71,302,86,57,48,1
31.4348504543304,42,58,72,305,80,55,47,1
31.457316160202,46,56,77,298,86,57,48,1
31.4717147350311,39,53,62,282,82,54,47,1
31.4949080944061,37,45,58,276,67,44,40,1
31.5178496837616,37,41,62,296,65,39,36,1
31.5315947532654,35,32,58,299,69,38,32,1
31.5548663139343,32,35,54,276,60,34,33,1
31.5775640010834,36,34,53,290,55,32,31,1
31.5925941467285,32,33,50,269,54,31,30,1
31.6152803897858,35,42,56,261,79,44,46,1
31.6379728317261,34,43,57,276,74,42,46,1
31.6516962051392,37,41,54,274,75,42,50,1
31.6748983860016,38,42,54,238,81,45,54,1
31.6975417137146,39,42,53,248,81,45,54,1
31.7116417884827,38,34,48,252,61,32,42,1
31.7351882457733,43,34,46,227,61,32,41,1
31.7576689720154,41,34,48,220,58,35,40,1
31.7716686725616,38,32,44,220,55,38,34,1
31.7953479290009,36,34,42,220,52,38,35,1
31.8174784183502,35,33,35,214,50,38,35,1
31.8317205905914,32,28,34,215,48,39,37,1
31.8549020290375,31,29,31,252,54,36,35,1
31.8775038719177,30,31,36,237,58,34,35,1
31.8916928768158,32,32,36,240,64,37,35,1
31.9148464202881,31,32,46,238,62,39,38,1
31.937798500061,31,36,51,243,65,43,41,1
31.9597229957581,31,34,49,247,62,41,37,1
31.9751942157745,35,32,53,255,56,39,37,1
31.9968233108521,35,32,54,242,52,37,38,1
32.0207324028015,40,34,51,235,52,35,37,1
32.0348167419434,39,32,46,249,50,28,33,1
32.057436466217,40,32,47,231,46,28,35,1
32.0798513889313,37,31,42,242,43,26,32,1
32.0948016643524,39,30,40,243,39,30,34,1
32.1173803806305,33,30,36,238,38,30,33,1
32.1399519443512,35,29,41,261,45,32,31,1
32.1548750400543,34,31,40,247,46,33,31,1
32.1777861118317,36,36,42,226,48,36,34,1
32.1999249458313,33,45,45,241,50,41,40,1
32.2141661643982,34,43,48,284,56,40,38,1
32.2375199794769,33,43,47,263,59,39,38,1
32.2599391937256,32,42,48,271,61,40,38,1
32.2748456001282,33,47,52,291,68,45,43,1
32.2976961135864,31,37,53,281,68,42,36,1
32.3201279640198,32,38,51,235,66,43,39,1
32.3342347145081,30,39,49,210,59,42,40,1
32.3574578762054,35,40,49,191,65,41,41,1
32.3800415992737,33,33,48,190,56,33,38,1
32.3947756290436,32,35,42,177,58,29,36,1
32.4176361560822,31,35,43,197,56,28,33,1
32.4401459693909,34,38,42,241,54,34,36,1
32.4547147750854,32,40,44,231,46,36,35,1
32.4774563312531,32,37,43,238,45,35,32,1
32.5002603530884,36,38,55,256,56,37,35,1
32.5142767429352,41,39,54,257,57,40,40,1
32.5378594398499,39,36,54,273,59,34,36,1
32.5599539279938,42,34,54,291,67,35,38,1
32.5741999149322,44,37,49,261,68,36,39,1
32.5974757671356,41,35,38,249,55,34,36,1
32.6198315620422,40,34,38,243,56,35,36,1
32.6341574192047,38,33,36,181,54,37,40,1
32.6575014591217,34,31,33,162,45,33,34,1
32.6801812648773,32,30,35,169,42,33,38,1
32.6950945854187,33,30,40,158,43,32,42,1
32.7175574302673,31,31,39,212,44,29,40,1
32.740026473999,31,33,44,233,42,26,37,1
32.7541937828064,31,33,46,235,46,27,39,1
32.7774705886841,30,30,46,239,46,26,35,1
32.7998740673065,31,39,46,251,51,32,38,1
32.8217034339905,32,43,49,199,50,33,37,1
32.8384397029877,31,42,45,192,51,36,39,1
32.8596045970917,30,41,46,183,52,36,39,1
32.8818571567535,34,42,45,266,53,37,40,1
32.8988931179047,32,35,44,260,51,32,34,1
32.9206898212433,31,32,39,269,53,34,34,1
32.941739320755,30,38,45,281,57,33,39,1
32.9585607051849,33,43,44,286,58,35,42,1
32.9794888496399,29,43,44,232,55,35,40,1
33.0026390552521,31,42,40,228,52,32,39,1
33.0186603069305,36,43,41,238,46,36,42,1
33.039722442627,36,38,34,212,45,33,35,1
33.0698351860046,35,36,31,216,45,32,33,1
33.0798189640045,35,40,34,198,47,35,37,1
33.0991623401642,32,39,31,199,49,39,40,1
33.1219806671143,29,35,33,212,54,32,35,1
33.1378328800201,38,38,42,260,60,37,40,1
33.1586441993713,40,37,41,250,60,39,43,1
33.1812026500702,40,31,39,249,60,37,40,1
33.1990478038788,42,33,43,291,64,35,37,1
33.2192001342773,40,32,48,270,66,35,40,1
33.2417464256287,37,27,46,227,64,31,37,1
33.2593169212341,35,25,48,217,60,28,33,1
33.2791509628296,40,26,54,258,68,30,39,1
33.3018827438354,40,25,52,218,66,31,40,1
33.3194830417633,40,26,46,230,62,33,39,1
33.3392651081085,39,27,45,243,56,33,39,1
33.3616805076599,37,32,47,308,61,35,43,1
33.378338098526,33,32,45,290,52,32,39,1
33.399267911911,32,32,46,286,49,31,38,1
33.4216501712799,34,46,54,272,50,32,45,1
33.4394142627716,33,47,57,323,52,32,44,1
33.4594943523407,34,44,55,285,51,33,42,1
33.4823596477509,38,48,58,263,68,38,47,1
33.4985222816467,37,48,56,261,67,37,46,1
33.5188806056976,37,37,52,272,70,36,37,1
33.5414130687714,38,36,56,273,73,35,39,1
33.5651240348816,39,37,54,278,68,33,38,1
33.5787093639374,37,31,50,319,53,26,31,1
33.6016552448273,41,38,51,329,57,31,42,1
33.6184129714966,40,36,53,394,53,32,43,1
33.6391308307648,40,47,46,343,52,32,45,1
33.6620376110077,42,61,59,332,65,41,54,1
33.6777191162109,42,66,62,349,65,44,55,1
33.6997215747833,39,62,61,339,59,42,47,1
33.7217755317688,42,68,58,263,62,41,50,1
33.7385237216949,45,66,55,285,57,43,47,1
33.7592220306396,43,51,45,287,45,34,36,1
33.7818088531494,41,48,41,227,50,37,37,1
33.7993245124817,42,49,43,275,53,37,38,1
33.8190493583679,39,39,41,277,47,37,34,1
33.8422918319702,35,30,40,288,50,34,35,1
33.8641767501831,37,33,40,306,52,36,39,1
33.880387544632,37,32,42,311,47,30,37,1
33.9017446041107,35,33,38,274,45,32,37,1
33.9244034290314,35,36,39,256,44,33,36,1
33.9392545223236,38,40,48,279,42,33,35,1
33.9618189334869,35,42,46,267,39,35,32,1
33.9846866130829,35,39,42,250,43,37,31,1
34.001113653183,32,45,44,293,47,37,32,1
34.0219423770905,32,43,48,308,49,38,34,1
34.0442526340485,26,39,39,260,49,39,33,1
34.0593113899231,24,39,37,256,48,38,32,1
34.0817766189575,25,43,46,299,47,40,38,1
34.1044657230377,25,37,46,269,44,39,38,1
34.1193151473999,32,36,46,369,47,39,39,1
34.1417286396027,35,34,51,370,51,38,39,1
34.1642105579376,37,34,58,381,52,35,38,1
34.1810083389282,38,30,52,354,51,30,32,1
34.2015292644501,44,32,54,364,51,31,32,1
34.2242903709412,41,33,54,289,47,28,32,1
34.2390985488892,41,36,52,294,44,28,30,1
34.2619233131409,43,34,48,319,47,27,28,1
34.2845163345337,43,34,50,310,50,31,31,1
34.299262046814,40,32,47,302,52,32,31,1
34.3222997188568,39,33,45,318,54,34,31,1
34.344229221344,38,31,44,310,57,33,31,1
34.359256029129,32,32,41,266,56,35,35,1
34.3818674087524,34,33,41,295,57,34,32,1
34.4041283130646,34,38,41,277,59,34,35,1
34.4191062450409,33,36,39,213,56,32,34,1
34.4417524337769,33,38,37,230,50,34,34,1
34.4641909599304,37,36,46,248,47,36,33,1
34.479293346405,36,35,49,224,43,34,34,1
34.5018982887268,36,29,51,224,37,28,31,1
34.5243844985962,38,29,49,248,36,27,29,1
34.5392515659332,45,30,53,298,45,26,32,1
34.5619029998779,42,30,51,278,54,24,35,1
34.584353685379,41,30,47,314,54,26,31,1
34.6010634899139,41,31,47,343,56,30,34,1
34.6220843791962,41,33,56,327,56,32,36,1
34.6442475318909,38,32,55,266,52,33,34,1
34.6620154380798,34,34,51,278,54,37,34,1
34.6817288398743,36,35,52,265,58,37,37,1
34.7043714523315,32,45,52,236,59,41,36,1
34.7213869094849,32,45,45,235,58,40,35,1
34.7418837547302,29,49,47,239,59,46,38,1
34.7646152973175,34,46,46,206,51,42,36,1
34.7810986042023,38,51,49,161,45,44,38,1
34.8018484115601,40,44,44,154,40,40,37,1
34.8246021270752,39,44,47,166,38,40,37,1
34.8470962047577,37,41,43,176,45,38,35,1
34.8617651462555,35,46,42,191,47,38,37,1
34.8842668533325,28,39,41,198,49,35,33,1
34.9071328639984,27,37,41,193,48,33,33,1
34.9218220710754,31,37,44,189,53,33,32,1
34.9441804885864,32,37,43,181,49,29,33,1
34.966691493988,33,30,47,183,54,28,33,1
34.9817929267883,34,38,44,183,56,32,35,1
35.0052163600922,37,39,49,206,62,32,36,1
35.0267424583435,35,38,50,195,62,33,37,1
35.0418608188629,35,40,53,192,68,36,40,1
35.0640983581543,34,41,51,192,65,35,37,1
35.0867190361023,32,34,54,199,63,30,35,1
35.1018941402435,35,35,52,214,65,32,34,1
35.1256675720215,34,34,48,218,63,31,32,1
35.146684885025,34,30,45,223,53,24,25,1
35.1618180274963,34,31,43,224,53,29,25,1
35.1842420101166,34,33,39,211,51,33,27,1
35.2067530155182,28,32,33,192,43,34,31,1
35.221727848053,31,30,29,263,44,35,33,1
35.2443037033081,30,31,29,255,46,37,38,1
35.2667582035065,31,30,31,258,43,34,40,1
35.282289981842,33,32,31,270,43,32,39,1
35.3042204380035,35,34,32,265,43,35,38,1
35.3269062042236,31,38,31,255,42,34,36,1
35.3417932987213,31,39,34,261,45,36,30,1
35.3643238544464,30,38,31,252,43,36,28,1
35.3870306015015,29,34,33,263,45,37,30,1
35.4018747806549,39,33,44,308,44,36,29,1
35.4242594242096,41,31,48,260,46,40,33,1
35.4469745159149,44,30,46,257,40,38,33,1
35.4617903232574,45,30,49,259,45,42,37,1
35.4844741821289,45,33,46,256,43,43,41,1
35.5067496299744,35,32,42,206,45,41,39,1
35.5221943855286,34,29,40,210,41,39,37,1
35.5444054603577,33,30,49,273,50,40,39,1
35.5669832229614,30,33,47,294,48,40,34,1
35.5820262432098,38,32,50,287,47,38,29,1
35.6046543121338,38,33,51,281,57,43,33,1
35.6269137859344,39,38,56,288,66,45,34,1
35.6420791149139,38,37,47,224,59,43,36,1
35.664210319519,39,33,47,197,57,39,36,1
35.6875514984131,33,36,49,187,64,43,39,1
35.7017302513123,32,36,48,176,56,42,38,1
35.724413394928,31,33,44,176,48,37,35,1
35.7471725940704,30,32,47,176,52,37,31,1
35.7693731784821,27,40,49,190,60,41,36,1
35.7842919826508,30,41,46,190,56,37,35,1
35.8069086074829,32,41,45,197,57,35,35,1
35.8300907611847,33,44,45,196,61,42,42,1
35.8444602489471,34,46,45,209,57,41,42,1
35.8668940067291,36,42,42,206,47,38,38,1
35.8893065452576,34,39,51,208,52,39,40,1
35.9045886993408,33,36,51,220,50,38,43,1
35.9269073009491,29,30,46,207,43,29,39,1
35.9499590396881,30,27,46,213,49,31,41,1
35.9638421535492,31,27,50,222,48,34,43,1
35.9862403869629,28,31,43,234,43,31,41,1
36.0095107555389,30,35,48,231,44,29,36,1
36.0248444080353,33,45,50,256,47,38,44,1
36.0466732978821,33,46,53,236,48,42,48,1
36.0691623687744,33,43,48,282,53,38,46,1
36.0841381549835,35,41,44,302,52,39,47,1
36.1068077087402,35,39,38,296,52,40,46,1
36.1292793750763,38,31,43,295,52,36,44,1
36.1438245773315,39,32,44,345,48,32,40,1
36.1671044826508,39,35,49,291,45,34,44,1
36.1889944076538,39,34,49,300,45,34,44,1
36.2039964199066,41,34,51,305,44,34,44,1
36.2267637252808,37,34,49,297,39,30,39,1
36.2492845058441,36,33,46,259,49,29,37,1
36.2642440795898,36,30,43,273,52,25,33,1
36.2869958877563,38,36,43,271,51,29,32,1
36.3092174530029,34,41,42,262,60,37,37,1
36.3243265151978,37,40,43,261,64,37,39,1
36.3467857837677,36,41,42,263,62,38,42,1
36.369277715683,33,43,42,259,58,39,42,1
36.3843252658844,34,40,41,241,61,37,42,1
36.4069356918335,32,35,40,234,51,30,39,1
36.4293265342712,34,37,38,229,48,30,37,1
36.4445886611938,33,35,37,226,44,39,38,1
36.4669549465179,38,34,40,220,44,41,37,1
36.4897766113281,37,33,44,193,43,42,39,1
36.5041632652283,38,40,43,199,49,46,39,1
36.5271925926208,34,39,42,181,51,47,38,1
36.5497510433197,37,40,42,182,55,39,32,1
36.5642318725586,33,46,42,189,56,40,37,1
36.5867850780487,31,45,43,197,58,40,37,1
36.6093513965607,31,43,45,282,62,37,35,1
36.6248617172241,33,41,44,301,70,39,41,1
36.6467690467834,30,39,43,298,65,38,41,1
36.6694161891937,31,32,46,307,63,34,39,1
36.6918408870697,31,35,43,318,64,34,38,1
36.7067878246307,35,33,45,247,57,33,39,1
36.7297806739807,33,40,48,220,43,34,37,1
36.7517101764679,34,46,51,225,50,36,37,1
36.7668225765228,32,48,47,202,49,39,40,1
36.789302110672,32,47,47,209,49,36,36,1
36.8114147186279,30,50,42,211,65,43,41,1
36.8264670372009,32,45,40,210,64,39,39,1
36.8493673801422,33,38,36,198,58,36,41,1
36.8733720779419,35,44,42,243,63,41,46,1
36.8867802619934,34,43,42,214,63,41,48,1
36.9089162349701,37,38,52,224,56,34,45,1
36.9322640895844,36,42,50,235,58,35,45,1
36.9466788768768,35,44,55,230,62,38,43,1
36.9695599079132,35,37,50,208,57,32,34,1
36.9918942451477,37,37,48,240,55,32,34,1
37.0063498020172,35,39,39,292,54,29,31,1
37.0293641090393,36,36,43,309,58,31,28,1
37.0517959594727,36,37,42,317,55,30,32,1
37.0667488574982,38,31,42,311,58,30,34,1
37.0896997451782,40,34,46,314,61,32,37,1
37.1117732524872,38,29,46,264,58,34,38,1
37.1270551681519,36,32,42,240,54,33,38,1
37.1491801738739,38,32,41,236,53,30,36,1
37.1721770763397,35,37,42,240,50,32,37,1
37.1872353553772,31,36,39,201,43,30,35,1
37.209490776062,37,41,36,207,34,28,32,1
37.2319536209106,42,38,41,252,36,31,34,1
37.2469091415405,40,39,36,246,32,32,32,1
37.2692880630493,41,37,40,235,30,33,29,1
37.2919120788574,41,42,41,247,39,34,26,1
37.3069841861725,35,37,42,233,44,35,25,1
37.3293046951294,30,39,38,198,44,35,31,1
37.3520245552063,30,37,45,217,48,34,33,1
37.3671193122864,29,39,45,236,50,30,33,1
37.3890218734741,28,36,46,244,49,29,33,1
37.4118294715881,29,35,49,250,45,27,35,1
37.4268095493317,28,40,51,234,48,26,30,1
37.449405670166,28,42,46,223,53,29,33,1
37.4739434719086,28,44,45,207,57,34,35,1
37.4867906570435,28,42,42,183,54,35,35,1
37.5097494125366,30,45,41,193,60,39,38,1
37.5317630767822,30,40,38,200,57,38,35,1
37.5467064380646,31,40,42,220,54,36,34,1
37.5692422389984,33,35,39,245,51,31,31,1
37.5928647518158,34,38,48,252,59,34,37,1
37.6070742607117,32,39,48,275,61,32,34,1
37.629415512085,35,37,56,301,67,31,37,1
37.6517958641052,33,37,53,277,67,36,36,1
37.6754295825958,33,37,55,303,71,38,40,1
37.6896574497223,32,36,46,310,65,35,36,1
37.7122716903686,33,30,51,336,58,34,38,1
37.7350068092346,32,32,51,320,59,36,38,1
37.7499451637268,33,35,49,322,56,32,41,1
37.771769285202,31,35,48,276,50,32,40,1
37.7951748371124,36,33,54,273,48,33,39,1
37.8097939491272,34,33,49,215,50,36,37,1
37.8322603702545,31,34,43,225,47,35,38,1
37.8554246425629,31,31,46,221,49,35,37,1
37.869425535202,29,34,46,214,52,35,32,1
37.8919913768768,24,36,46,187,63,33,32,1
37.9153134822845,24,38,45,171,69,33,35,1
37.9293661117554,28,36,42,192,70,35,34,1
37.9518296718597,29,44,50,197,75,40,46,1
37.9752113819122,34,41,54,215,74,39,48,1
37.9893653392792,37,39,51,224,65,40,47,1
38.0119276046753,38,37,52,252,57,39,45,1
38.0352230072021,39,39,54,226,61,42,48,1
38.0492668151855,40,29,44,227,52,37,36,1
38.0714812278748,39,28,41,253,53,38,34,1
38.0946071147919,37,31,37,244,57,38,35,1
38.1094155311584,40,37,35,216,57,37,40,1
38.131992816925,37,37,37,206,51,33,36,1
38.1549961566925,37,38,42,220,62,33,35,1
38.1694076061249,41,41,46,215,60,34,37,1
38.1919043064117,41,39,52,226,56,32,35,1
38.2150025367737,40,38,51,251,56,35,31,1
38.2300276756287,40,37,49,298,62,35,31,1
38.2524666786194,41,35,45,298,51,34,32,1
38.2756536006927,38,32,40,291,51,31,30,1
38.2894575595856,39,36,39,282,60,34,32,1
38.3118557929993,37,36,41,279,60,31,33,1
38.3351938724518,39,35,42,244,54,28,32,1
38.3493146896362,37,34,43,268,54,26,33,1
38.3718543052673,33,40,53,270,75,39,44,1
38.3965492248535,32,37,53,307,73,38,43,1
38.409982919693,29,34,54,298,76,40,46,1
38.4334940910339,27,35,52,293,79,42,51,1
38.4552271366119,31,36,53,270,79,43,51,1
38.4710149765015,33,36,46,239,58,35,41,1
38.4922590255737,34,40,41,224,52,33,41,1
38.5151224136353,38,45,40,210,49,38,44,1
38.5293447971344,38,45,44,189,44,38,40,1
38.5520255565643,38,46,42,198,46,37,40,1
38.5750584602356,38,40,38,200,48,38,40,1
38.5977149009705,37,38,38,229,54,39,41,1
38.6118748188019,33,33,36,227,49,32,32,1
38.6350047588348,34,32,36,266,53,32,30,1
38.6579184532165,38,31,42,260,67,34,29,1
38.6714563369751,36,33,42,266,64,32,33,1
38.6946964263916,37,32,45,236,63,33,35,1
38.7179324626923,38,33,60,295,76,37,39,1
38.7327389717102,39,34,60,265,73,37,37,1
38.7550845146179,31,34,57,272,61,34,38,1
38.7772858142853,31,33,60,281,61,34,34,1
38.7918400764465,28,34,59,268,61,35,31,1
38.8152542114258,26,32,46,193,49,33,30,1
38.8375859260559,31,33,45,279,50,31,35,1
38.8528289794922,31,43,42,274,52,36,38,1
38.8746476173401,35,43,40,304,53,35,38,1
38.8977694511414,37,44,40,301,51,36,42,1
38.9118690490723,37,46,38,306,48,35,40,1
38.9354240894318,35,45,35,245,51,35,36,1
38.9579064846039,39,35,44,280,49,30,33,1
38.9719536304474,40,43,47,256,60,37,38,1
38.9943189620972,40,42,47,280,66,35,33,1
39.0171949863434,40,43,50,274,66,40,39,1
39.0319392681122,41,42,60,293,69,42,39,1
39.0548558235168,39,44,55,266,68,43,39,1
39.0779931545258,38,38,52,245,60,41,36,1
39.0914876461029,42,37,53,236,56,42,37,1
39.114678144455,43,35,52,261,58,38,31,1
39.1377084255218,38,35,42,228,51,37,32,1
39.1518795490265,39,37,42,217,53,40,39,1
39.1744706630707,36,35,42,226,56,38,40,1
39.1976897716522,31,33,37,235,55,36,40,1
39.2118368148804,35,35,37,225,55,34,40,1
39.2346181869507,36,39,45,232,57,37,40,1
39.257691860199,37,36,48,258,53,33,34,1
39.2728793621063,38,37,55,288,57,41,43,1
39.2945258617401,38,41,57,280,58,42,41,1
39.3173131942749,33,37,56,298,53,41,41,1
39.3312835693359,32,37,52,336,51,40,42,1
39.3545310497284,29,34,48,340,51,38,43,1
39.3776190280914,33,31,40,318,42,29,35,1
39.3918633460999,32,28,42,301,41,30,37,1
39.414377450943,34,31,57,277,48,32,40,1
39.4378819465637,38,29,56,221,48,31,40,1
39.4519472122192,38,33,56,178,48,34,39,1
39.4746878147125,35,34,55,177,44,34,37,1
39.505161523819,39,34,57,228,55,36,42,1
39.5119249820709,37,30,45,268,51,34,37,1
39.5344178676605,38,29,44,289,53,34,37,1
39.5577867031097,40,28,47,312,56,34,37,1
39.5802390575409,45,27,48,326,57,33,36,1
39.5943651199341,42,32,42,299,43,29,32,1
39.6175889968872,43,32,38,257,44,31,35,1
39.6400518417358,38,38,36,244,41,30,36,1
39.6543781757355,39,38,33,196,38,29,34,1
39.6782698631287,36,39,30,154,39,30,34,1
39.6997966766357,36,34,34,228,41,29,35,1
39.7144327163696,36,35,40,241,40,29,32,1
39.7453322410583,37,32,43,241,44,28,31,1
39.7602090835571,36,31,43,285,43,28,31,1
39.7745201587677,35,34,44,315,44,30,30,1
39.7976434230804,35,36,44,264,50,30,28,1
39.8202574253082,34,39,40,263,56,31,32,1
39.8344349861145,38,45,40,285,60,33,32,1
39.8577997684479,38,45,43,260,62,35,36,1
39.8801794052124,34,44,44,256,65,34,40,1
39.8948078155518,37,44,43,250,60,34,40,1
39.9176881313324,37,44,43,254,54,31,37,1
39.9398210048676,34,35,41,230,44,28,33,1
39.9538252353668,34,36,39,247,53,28,32,1
39.9775657653809,36,41,41,224,52,32,39,1
40.0001413822174,33,38,41,226,54,34,39,1
40.0144226551056,36,37,38,205,59,36,41,1
40.0376372337341,37,41,41,294,66,38,42,1
40.0602238178253,38,42,43,271,58,36,42,1
40.0749216079712,38,35,38,264,54,31,33,1
40.0977666378021,41,40,39,282,55,31,35,1
40.1203072071075,40,39,39,287,51,30,38,1
40.1344504356384,38,37,38,190,49,31,39,1
40.1577570438385,35,33,40,199,49,32,38,1
40.1801199913025,34,32,41,192,55,34,43,1
40.1945717334747,29,28,38,168,52,34,42,1
40.2174999713898,29,28,42,178,50,33,39,1
40.2400875091553,28,35,42,181,47,37,45,1
40.2546231746674,27,37,38,162,48,37,46,1
40.2777652740479,29,37,42,196,44,35,44,1
40.3014135360718,33,43,60,211,50,36,46,1
40.3144097328186,34,44,58,224,50,35,46,1
40.3380236625671,33,37,55,211,45,29,37,1
40.3606824874878,35,39,56,213,44,32,38,1
40.3748142719269,35,42,54,248,44,31,38,1
40.3975524902344,33,37,33,245,40,31,39,1
40.4202871322632,32,34,28,228,39,30,38,1
40.4344758987427,35,37,30,243,47,31,41,1
40.4574775695801,34,39,29,241,51,27,39,1
40.4801187515259,32,42,32,176,51,32,42,1
40.5024182796478,32,43,32,221,56,35,39,1
40.5178442001343,31,42,38,217,58,40,42,1
40.5405144691467,27,40,38,197,55,38,38,1
40.562680721283,29,40,41,225,52,43,43,1
40.577606678009,30,33,37,237,54,38,37,1
40.6014049053192,33,32,39,207,56,37,35,1
40.623010635376,35,33,36,216,55,35,34,1
40.6383244991303,37,33,39,266,58,39,38,1
40.660059928894,37,28,38,256,57,35,32,1
40.6825230121613,38,31,41,272,53,35,34,1
40.6977355480194,38,36,46,261,56,34,40,1
40.7201859951019,36,37,45,290,55,32,38,1
40.742805480957,35,39,43,257,50,32,36,1
40.7577645778656,42,36,46,243,49,30,35,1
40.7805140018463,43,47,51,234,57,36,40,1
40.8027558326721,44,50,46,237,53,40,39,1
40.817617893219,45,49,48,186,53,40,38,1
40.8400893211365,45,48,50,226,56,41,39,1
40.8627710342407,38,51,50,277,58,43,39,1
40.8770890235901,35,44,48,256,58,41,39,1
40.9006416797638,31,39,50,252,59,40,40,1
40.9228627681732,31,41,50,252,59,41,40,1
40.9376471042633,32,40,51,289,56,40,42,1
40.960141658783,34,39,48,261,59,40,43,1
40.9830162525177,36,34,47,268,52,39,38,1
40.996976852417,38,38,46,267,45,36,35,1
41.0203893184662,36,38,43,280,43,36,35,1
41.0429110527039,37,37,37,212,43,32,31,1
41.0569670200348,34,39,38,230,44,33,32,1
41.0796828269959,33,39,33,237,46,31,30,1
41.1027948856354,32,37,31,230,51,34,29,1
41.1169862747192,37,41,41,239,63,35,35,1
41.1396515369415,34,41,44,228,64,36,38,1
41.1629948616028,37,43,49,215,59,35,41,1
41.1769926548004,35,47,55,252,61,36,44,1
41.2001588344574,34,43,55,247,59,34,44,1
41.2227430343628,30,39,48,224,46,30,38,1
41.2368514537811,31,41,59,279,55,32,40,1
41.2601711750031,34,37,55,272,54,29,35,1
41.282772064209,36,32,50,224,50,27,32,1
41.2969682216644,36,31,54,260,50,26,33,1
41.3203094005585,39,29,59,298,53,28,35,1
41.3431391716003,39,30,49,246,42,24,31,1
41.357225894928,35,30,46,236,45,26,32,1
41.3801560401917,37,31,47,233,43,30,33,1
41.4039714336395,50,47,57,269,43,37,43,1
41.4252536296844,51,55,54,244,40,44,47,1
41.4398040771484,54,52,51,245,42,43,46,1
41.4627978801727,56,52,58,240,42,43,45,1
41.4851322174072,53,51,58,258,43,41,46,1
41.5000898838043,45,37,47,233,42,35,38,1
41.5227429866791,43,26,47,232,46,27,32,1
41.5455241203308,39,26,46,229,43,27,34,1
41.5602970123291,39,28,45,256,46,28,39,1
41.582724571228,41,34,46,244,53,30,39,1
41.6052165031433,37,34,45,201,58,34,39,1
41.6201438903809,34,35,40,187,57,33,38,1
41.6427280902863,38,39,49,237,68,38,41,1
41.6726276874542,37,40,44,235,70,39,37,1
41.6799926757813,36,37,45,256,65,38,37,1
41.7025849819183,37,37,47,257,62,35,35,1
41.7251224517822,40,38,51,260,64,37,39,1
41.7410383224487,41,37,50,350,64,35,34,1
41.7629351615906,42,36,48,339,59,33,33,1
41.784914970398,42,33,44,321,57,31,31,1
41.7990345954895,42,38,44,334,56,31,35,1
41.8231120109558,44,39,44,331,51,27,30,1
41.8453807830811,39,42,37,206,38,25,31,1
41.8594224452972,39,43,50,210,38,26,34,1
41.882702589035,42,44,52,226,44,31,36,1
41.9045758247376,42,41,57,291,43,31,30,1
41.9197881221771,37,39,56,295,46,33,31,1
41.9427905082703,40,37,61,287,54,36,39,1
41.9654767513275,37,35,52,294,55,38,42,1
41.9804403781891,35,35,53,327,56,40,44,1
42.0029184818268,35,33,49,268,56,40,45,1
42.0254759788513,35,36,51,269,56,44,49,1
42.0399932861328,33,35,47,271,48,43,45,1
42.0621347427368,35,36,48,264,47,42,43,1
42.085541009903,39,42,45,227,42,42,44,1
42.0995206832886,38,43,43,240,51,45,44,1
42.1225779056549,38,44,38,245,49,44,41,1
42.1455640792847,39,40,43,245,53,42,39,1
42.1676073074341,38,44,42,226,56,45,39,1
42.1826765537262,36,41,51,323,70,46,42,1
42.2051944732666,34,40,50,307,62,43,41,1
42.2198307514191,37,38,54,307,64,43,39,1
42.2426295280457,37,41,51,306,62,43,39,1
42.2650735378265,36,38,52,306,61,41,39,1
42.2794179916382,35,35,46,213,45,34,29,1
42.3025593757629,37,35,52,253,54,35,30,1
42.3271706104279,36,32,48,235,53,34,31,1
42.3396294116974,34,29,47,229,54,33,31,1
42.362767457962,39,32,48,231,54,33,29,1
42.3854188919067,43,31,44,204,54,35,32,1
42.4082217216492,43,33,40,158,48,33,34,1
42.4225554466248,42,33,43,177,50,32,37,1
42.4463262557983,43,36,43,166,54,35,40,1
42.4680302143097,39,32,39,170,52,37,41,1
42.4835064411163,35,34,41,241,55,35,39,1
42.5051691532135,37,34,38,229,56,41,42,1
42.5278046131134,36,35,35,224,53,43,40,1
42.5426573753357,34,36,38,248,50,43,40,1
42.5651664733887,37,35,41,246,51,42,41,1
42.5877230167389,37,35,42,185,53,45,44,1
42.6037113666534,34,34,43,212,54,41,40,1
42.6247928142548,36,38,53,266,76,43,45,1
42.6471703052521,35,33,51,275,73,40,43,1
42.6637434959412,34,36,50,313,75,39,44,1
42.6849157810211,33,37,47,304,76,37,41,1
42.7068283557892,34,37,46,288,77,36,44,1
42.7236909866333,32,32,33,265,56,30,37,1
42.7444112300873,32,32,34,261,62,32,36,1
42.766969203949,30,29,37,225,61,30,31,1
42.7841854095459,28,30,35,233,53,31,31,1
42.804595708847,26,35,40,233,53,32,28,1
42.8270437717438,29,36,43,231,56,31,28,1
42.8439340591431,34,41,42,217,53,32,29,1
42.8647799491882,37,44,38,203,57,33,33,1
42.8869609832764,37,44,42,213,58,35,35,1
42.9036164283752,38,44,41,214,55,36,39,1
42.9244999885559,38,45,40,189,48,36,38,1
42.9475994110107,34,43,44,202,44,37,39,1
42.9639692306519,39,43,49,222,42,40,38,1
42.9863889217377,38,44,47,207,48,41,38,1
43.0071918964386,38,42,46,208,53,38,34,1
43.0250906944275,40,41,44,219,60,39,37,1
43.0464870929718,39,40,47,205,65,40,41,1
43.0670094490051,34,35,41,198,64,37,38,1
43.0841689109802,36,32,44,202,60,35,37,1
43.106241941452,37,30,43,199,59,36,40,1
43.1269447803497,39,31,45,250,57,35,38,1
43.1444208621979,38,27,38,269,52,31,32,1
43.1667747497559,40,33,44,269,59,34,44,1
43.1869978904724,39,37,42,263,56,36,43,1
43.2040205001831,36,35,43,333,55,35,41,1
43.2266685962677,32,35,52,289,64,38,46,1
43.2472853660584,32,40,51,267,62,42,49,1
43.2643744945526,32,38,50,280,54,39,40,1
43.2872188091278,31,35,54,338,65,36,42,1
43.3070721626282,34,37,50,273,64,36,41,1
43.3238291740418,35,36,41,273,50,32,36,1
43.3465447425842,34,31,40,268,53,32,34,1
43.3665859699249,35,30,39,275,55,33,34,1
43.389878988266,35,31,32,253,45,33,32,1
43.4081263542175,34,29,34,257,51,34,35,1
43.4269859790802,31,31,34,256,55,37,38,1
43.4506525993347,33,34,33,262,53,34,37,1
43.4665462970734,30,35,33,272,55,32,35,1
43.4883399009705,34,44,45,317,69,41,43,1
43.5091238021851,34,42,44,308,67,40,40,1
43.5272917747498,36,43,52,307,67,42,39,1
43.5469295978546,40,42,55,315,68,45,40,1
43.5695843696594,40,49,63,293,82,56,55,1
43.5863151550293,37,45,57,184,71,51,51,1
43.6073782444,36,47,57,196,73,51,50,1
43.629519701004,35,46,58,202,78,50,52,1
43.6463465690613,30,44,57,220,77,48,51,1
43.6671686172485,29,35,48,222,57,35,36,1
43.6896991729736,29,30,48,272,55,35,37,1
43.7062058448792,28,32,46,278,52,37,36,1
43.7270362377167,26,34,36,271,40,36,35,1
43.7496144771576,25,34,33,248,41,34,35,1
43.766072511673,29,33,47,257,52,33,34,1
43.7869446277618,31,47,62,220,74,47,47,1
43.809543132782,31,44,65,212,79,46,49,1
43.8266968727112,36,41,65,247,77,46,46,1
43.8469524383545,37,44,66,255,79,50,49,1
43.8698065280914,35,45,57,230,77,50,49,1
43.8868381977081,34,29,37,230,61,32,35,1
43.9069354534149,36,30,35,238,53,32,33,1
43.9296457767487,35,41,47,227,78,39,42,1
43.9467430114746,46,40,53,269,82,34,38,1
43.9669797420502,44,40,52,287,77,37,38,1
43.9895470142365,46,42,54,332,78,40,41,1
44.007675409317,46,43,59,330,81,41,42,1
44.0271065235138,44,35,53,333,61,39,36,1
44.0494251251221,32,33,44,310,53,39,37,1
44.0663290023804,34,33,47,294,57,41,40,1
44.0869352817535,38,28,45,254,54,40,37,1
44.1098124980927,35,32,37,255,53,44,37,1
44.1319961547852,40,33,36,258,53,40,33,1
44.1469504833222,43,35,41,288,63,44,38,1
44.1693780422211,41,36,40,295,63,42,36,1
44.1865880489349,37,37,39,284,62,40,36,1
44.2067048549652,36,34,45,289,64,35,35,1
44.2296559810638,31,34,52,290,63,41,44,1
44.2462129592896,24,39,51,242,59,43,46,1
44.2670321464539,26,47,54,239,63,46,49,1
44.2895617485046,29,47,55,231,63,47,50,1
44.3124244213104,31,46,52,245,58,47,50,1
44.3283593654633,31,47,48,248,58,42,42,1
44.3494362831116,34,43,45,246,53,36,37,1
44.3721859455109,36,34,41,244,47,29,30,1
44.387348651886,36,32,48,240,46,29,31,1
44.4094758033752,35,36,46,202,44,32,31,1
44.4319839477539,37,36,44,183,40,34,32,1
44.4471349716187,38,38,45,173,43,36,34,1
44.4696497917175,36,38,45,190,41,38,36,1
44.4936559200287,33,41,36,215,43,39,37,1
44.5071325302124,33,38,36,238,48,36,36,1
44.5295515060425,35,38,38,222,53,34,38,1
44.5521566867828,32,36,37,229,49,34,34,1
44.5681247711182,33,35,38,236,49,32,34,1
44.5896368026733,36,33,40,213,46,32,32,1
44.6121559143066,36,33,41,222,42,34,32,1
44.6269664764404,36,30,37,222,37,32,30,1
44.6494753360748,35,27,44,246,42,29,31,1
44.6720585823059,35,29,49,240,47,28,30,1
44.6875047683716,34,28,47,243,50,27,31,1
44.7101511955261,32,27,48,220,50,22,31,1
44.7320735454559,29,28,53,289,53,27,29,1
44.747086763382,31,32,48,270,52,33,31,1
44.7698192596436,30,31,42,263,48,33,30,1
44.7920598983765,29,32,44,263,47,36,28,1
44.8070693016052,36,42,48,271,60,43,41,1
44.8297054767609,36,44,47,190,56,40,40,1
44.8519313335419,34,43,48,191,54,36,39,1
44.867214679718,35,44,51,214,59,42,47,1
44.8896989822388,36,44,49,221,60,43,49,1
44.9121830463409,31,34,43,206,49,36,41,1
44.927191734314,38,29,39,218,50,37,43,1
44.9498772621155,37,33,37,261,51,39,42,1
44.9719707965851,37,31,34,234,45,34,35,1
44.9869537353516,37,31,35,263,44,33,31,1
45.009548664093,36,35,36,270,44,35,30,1
45.0318834781647,28,39,37,261,43,37,35,1
45.0469946861267,29,37,40,286,43,36,37,1
45.06942486763,28,48,46,298,47,46,46,1
45.0930345058441,31,48,50,283,44,47,49,1
45.10711145401,30,44,52,296,47,47,46,1
45.1296606063843,32,43,53,295,54,49,45,1
45.1519401073456,35,45,53,228,60,48,45,1
45.1669936180115,37,40,51,221,67,46,43,1
45.1897161006928,32,43,49,188,70,43,42,1
45.2119836807251,33,46,46,181,66,44,44,1
45.227089881897,33,51,45,205,61,45,43,1
45.2495155334473,32,48,46,192,55,48,44,1
45.2720150947571,30,44,42,216,44,42,39,1
45.2946825027466,33,46,46,246,50,49,48,1
45.3094789981842,33,44,50,236,51,45,48,1
45.340211391449,32,39,49,240,59,42,48,1
45.354570388794,37,42,49,268,69,39,47,1
45.3694188594818,38,45,51,256,71,41,46,1
45.3924117088318,36,42,48,248,64,32,35,1
45.4148271083832,36,45,48,243,66,35,36,1
45.4295392036438,39,43,49,297,61,33,35,1
45.4527289867401,32,43,45,293,48,29,33,1
45.4748888015747,33,37,45,288,47,30,33,1
45.4895584583282,34,34,45,281,52,30,30,1
45.5120487213135,35,32,43,296,50,28,28,1
45.5346436500549,36,37,43,216,52,34,27,1
45.549468755722,39,41,55,204,72,45,43,1
45.5719785690308,41,42,59,196,76,43,46,1
45.594621181488,43,43,62,193,77,44,46,1
45.6097681522369,41,45,67,213,80,48,51,1
45.632256269455,39,41,70,255,81,47,53,1
45.654721736908,33,38,58,250,64,40,42,1
45.6694889068604,32,41,54,286,63,39,42,1
45.6924223899841,32,46,52,291,63,45,46,1
45.715238571167,34,46,43,257,57,41,43,1
45.7295842170715,36,45,39,225,52,38,42,1
45.7524969577789,41,45,46,286,57,38,43,1
45.774484872818,39,44,44,249,50,36,41,1
45.7894976139069,37,38,39,252,45,30,37,1
45.8120274543762,42,51,63,285,72,38,52,1
45.834903717041,42,52,64,274,78,43,54,1
45.8512723445892,37,50,58,214,73,41,51,1
45.8723447322845,39,50,58,215,74,43,51,1
45.8944973945618,39,51,59,217,76,48,54,1
45.9096624851227,33,37,35,202,52,42,38,1
45.9320313930512,33,36,30,214,41,39,34,1
45.9546549320221,36,38,35,200,48,40,40,1
45.9696490764618,34,38,36,199,46,39,39,1
45.9920604228973,33,36,35,188,44,34,37,1
46.0145604610443,33,35,33,166,43,35,34,1
46.0294752120972,31,38,42,184,45,37,39,1
46.0519831180573,27,34,42,205,37,35,31,1
46.0741634368897,28,31,42,211,43,36,35,1
46.0899579524994,35,35,42,218,45,38,35,1
46.1122090816498,35,39,43,224,51,39,35,1
46.1342284679413,35,35,34,198,50,35,31,1
46.1490957736969,38,40,30,209,54,35,33,1
46.1720328330994,37,45,31,207,53,39,32,1
46.1946685314179,32,43,38,216,49,36,32,1
46.2170631885529,30,42,42,232,47,35,36,1
48.5429036617279,33,27,62,138,51,75,73,2
48.5574631690979,34,30,68,148,58,75,71,2
48.5795996189117,31,30,64,144,58,75,72,2
48.602885723114,32,31,66,125,54,89,79,2
48.625862121582,32,28,67,142,53,73,60,2
48.6398980617523,31,28,53,111,44,71,57,2
48.6625137329102,30,30,49,97,33,69,58,2
48.6771974563599,29,29,48,89,33,93,80,2
48.699869632721,29,29,43,94,38,76,70,2
48.7228312492371,30,29,48,113,38,75,68,2
48.7372233867645,30,31,58,130,39,74,68,2
48.7590706348419,31,24,56,131,37,84,77,2
48.7823152542114,35,24,57,133,39,82,67,2
48.7971913814545,33,25,65,145,42,83,66,2
48.8197004795074,36,27,75,159,52,83,66,2
48.8429079055786,35,24,68,151,51,83,65,2
48.8569884300232,34,25,69,148,53,97,77,2
48.8799862861633,31,25,68,147,52,80,69,2
48.9028294086456,31,24,63,138,45,80,71,2
48.9171407222748,30,23,47,100,36,87,76,2
48.9400544166565,31,24,45,90,38,103,89,2
48.9631614685059,30,24,44,91,41,82,71,2
48.9768912792206,31,25,43,95,41,78,69,2
49.00004529953,31,24,40,92,46,76,66,2
49.0227949619293,31,27,49,93,43,74,67,2
49.0449151992798,31,26,52,99,43,76,72,2
49.0593776702881,33,26,49,98,39,80,76,2
49.0827496051788,32,27,52,94,39,82,77,2
49.1056156158447,32,28,52,84,34,108,96,2
49.1199550628662,29,28,44,77,38,106,94,2
49.1424143314362,28,29,42,72,35,91,84,2
49.1653881072998,30,30,42,77,37,90,80,2
49.1798887252808,28,29,41,81,39,88,78,2
49.2029049396515,29,29,37,82,41,76,70,2
49.2253568172455,27,26,39,71,35,75,66,2
49.239138841629,29,25,43,82,37,72,58,2
49.2629218101501,27,25,42,79,35,71,57,2
49.2853503227234,28,25,44,79,38,90,70,2
49.2996406555176,28,27,47,78,37,74,53,2
49.3229012489319,33,23,41,96,47,75,54,2
49.3463397026062,32,25,42,117,49,74,54,2
49.3596653938293,32,25,45,120,50,84,62,2
49.3828926086426,34,24,43,117,47,69,57,2
49.4053146839142,36,23,41,117,47,69,58,2
49.4196276664734,31,24,44,112,37,66,56,2
49.4428639411926,33,25,37,77,34,85,70,2
49.4673738479614,36,23,35,82,36,78,65,2
49.4790575504303,34,24,35,86,38,72,56,2
49.5034096240997,35,23,37,95,36,70,56,2
49.5253129005432,37,22,35,102,42,89,71,2
49.5395913124085,36,20,43,115,43,72,60,2
49.5630657672882,33,24,45,116,48,70,61,2
49.5854403972626,35,27,47,116,48,89,84,2
49.5997693538666,33,27,47,114,50,91,85,2
49.6229157447815,30,28,47,107,44,76,74,2
49.6459243297577,29,28,59,126,47,74,73,2
49.6602141857147,29,29,60,123,39,76,76,2
49.6828260421753,29,26,60,122,37,71,66,2
49.705756187439,28,27,59,120,36,70,69,2
49.7195739746094,29,26,56,112,36,66,67,2
49.742470741272,31,26,56,121,41,67,72,2
49.7649691104889,30,21,55,129,42,74,76,2
49.7797696590424,29,25,53,127,42,61,66,2
49.8027696609497,30,24,53,126,42,60,65,2
49.8255345821381,29,24,54,123,45,62,66,2
49.8397123813629,28,25,37,77,36,65,66,2
49.8628387451172,29,25,44,67,34,79,64,2
49.8860440254211,27,23,44,72,35,78,60,2
49.8996784687042,29,22,45,79,38,79,60,2
49.9230711460114,30,23,46,78,40,96,72,2
49.9458627700806,30,23,43,73,39,98,71,2
49.959493637085,32,22,33,79,40,80,64,2
49.9828717708588,33,23,35,80,40,79,65,2
50.0050556659699,30,25,35,78,38,77,63,2
50.0281064510345,35,25,33,77,35,73,64,2
50.0516316890717,38,23,37,80,34,68,61,2
50.0659956932068,37,24,39,70,33,68,61,2
50.0879080295563,36,23,37,66,31,67,59,2
50.1029372215271,39,24,40,75,31,84,66,2
50.125349521637,33,24,41,79,31,80,63,2
50.1476051807404,31,24,43,100,36,82,61,2
50.1624782085419,30,26,45,108,36,93,67,2
50.1848511695862,29,27,49,118,37,107,79,2
50.2091774940491,27,26,46,110,33,94,73,2
50.2230024337769,30,25,45,108,34,83,62,2
50.2454600334167,31,26,40,90,32,82,66,2
50.2760813236237,32,26,37,88,32,79,63,2
50.2830257415772,34,23,33,81,32,61,51,2
50.3054988384247,37,26,42,88,32,63,52,2
50.3278601169586,36,26,43,88,31,86,69,2
50.3430624008179,36,26,43,84,27,84,69,2
50.3654410839081,35,23,39,68,27,75,63,2
50.3879387378693,34,23,55,135,32,74,63,2
50.402369260788,32,22,51,141,34,95,73,2
50.4262518882751,32,21,50,143,34,80,62,2
50.4480512142181,30,23,50,145,37,80,63,2
50.4624123573303,32,24,50,146,39,82,66,2
50.4855282306671,30,27,33,97,38,100,79,2
50.5081737041473,28,26,57,203,55,80,70,2
50.5222811698914,27,27,61,217,58,77,67,2
50.5454857349396,27,24,62,217,56,79,65,2
50.5677814483643,26,24,64,217,55,77,61,2
50.5824038982391,26,20,62,212,54,71,51,2
50.6055274009705,30,22,47,134,35,79,57,2
50.6278998851776,30,21,44,124,33,79,58,2
50.642480134964,32,22,43,123,33,75,57,2
50.6653525829315,32,23,43,121,35,93,70,2
50.6878945827484,35,24,44,120,36,83,67,2
50.7022640705109,31,25,36,91,39,79,61,2
50.7255761623383,31,24,35,76,37,77,62,2
50.747985124588,31,26,34,75,37,98,76,2
50.7626702785492,29,26,36,82,34,81,64,2
50.7856481075287,29,27,36,79,30,81,66,2
50.8082866668701,32,24,38,95,25,78,65,2
50.8222734928131,32,22,38,98,26,91,82,2
50.8454220294952,31,20,37,99,25,75,76,2
50.8690302371979,35,19,37,95,28,75,76,2
50.8821425437927,32,21,41,102,31,69,73,2
50.9055042266846,33,22,44,90,33,71,74,2
50.9278900623322,33,23,42,82,34,79,69,2
50.9504661560059,31,22,42,82,34,73,63,2
50.9657793045044,30,24,46,85,37,72,64,2
50.987859249115,32,21,48,98,36,70,63,2
51.010354757309,32,22,43,91,35,72,65,2
51.027022600174,33,22,45,93,37,65,60,2
51.0475311279297,34,24,48,91,38,66,59,2
51.0703556537628,34,25,44,98,34,67,61,2
51.0860164165497,38,25,52,128,39,86,83,2
51.1078782081604,37,24,51,127,38,85,80,2
51.1306223869324,36,23,50,127,41,71,74,2
51.1455836296082,36,22,47,126,40,71,74,2
51.167778968811,36,21,45,120,42,71,73,2
51.1905369758606,35,22,35,78,39,77,58,2
51.2057967185974,36,22,39,76,39,78,62,2
51.2280797958374,35,22,38,72,36,78,60,2
51.2505548000336,38,22,47,88,38,79,59,2
51.2811861038208,35,22,45,92,39,94,72,2
51.2876708507538,31,22,42,98,39,77,67,2
51.3103878498077,31,22,42,98,39,75,62,2
51.3247535228729,32,24,41,98,43,95,80,2
51.3479695320129,29,26,39,113,44,102,86,2
51.3708958625793,33,27,44,126,48,90,76,2
51.3854739665985,33,25,45,120,46,86,74,2
51.4078640937805,35,26,50,121,46,86,74,2
51.4306955337524,34,25,57,129,41,87,70,2
51.4448161125183,36,25,54,106,38,79,65,2
51.4675018787384,36,22,53,110,29,77,63,2
51.4900331497192,34,22,51,105,28,77,62,2
51.5048007965088,33,20,46,108,33,92,78,2
51.5284881591797,33,20,38,100,35,72,70,2
51.5504510402679,30,26,52,142,42,71,68,2
51.5648331642151,29,31,55,137,42,68,65,2
51.587858915329,29,31,55,143,45,96,86,2
51.6105074882507,29,32,59,144,46,84,75,2
51.6252348423004,29,33,59,148,52,84,72,2
51.647956609726,32,29,46,113,46,87,74,2
51.6698560714722,32,25,42,105,50,114,99,2
51.6851029396057,34,26,46,99,48,91,84,2
51.7079849243164,32,29,40,95,47,92,84,2
51.7303476333618,34,27,41,99,44,89,83,2
51.744681596756,31,27,43,98,44,91,85,2
51.7682707309723,33,27,41,93,38,79,73,2
51.7904546260834,32,30,36,88,42,78,74,2
51.804783821106,34,26,38,103,38,74,68,2
51.8278450965881,32,26,40,106,38,95,84,2
51.8506722450256,32,25,43,107,39,94,84,2
51.8648171424866,30,24,42,105,39,76,71,2
51.8879296779633,29,22,45,110,33,88,75,2
51.9114530086517,27,23,42,91,34,101,82,2
51.9329793453217,25,23,45,84,30,85,66,2
51.9480128288269,28,26,45,85,37,82,61,2
51.9704139232636,28,26,46,92,38,80,58,2
51.9929430484772,28,26,47,92,42,85,62,2
52.0078990459442,28,26,47,92,42,74,59,2
52.0306651592255,30,27,47,92,42,72,58,2
52.0527856349945,27,23,41,85,39,75,61,2
52.0681540966034,30,22,46,80,39,91,76,2
52.0907642841339,30,25,55,106,40,79,67,2
52.1129624843597,29,24,56,113,41,75,63,2
52.1281545162201,30,24,53,109,39,97,78,2
52.1504530906677,31,25,53,107,36,101,82,2
52.1734993457794,29,28,50,116,36,92,73,2
52.1878871917725,27,26,36,107,40,91,71,2
52.2106182575226,28,27,35,105,41,116,92,2
52.233461856842,27,26,40,133,47,103,86,2
52.2472176551819,28,26,44,144,46,96,79,2
52.2704515457153,31,24,40,135,48,93,75,2
52.2932991981506,33,24,41,131,43,114,100,2
52.307270526886,34,24,40,129,44,95,85,2
52.3305661678314,38,23,36,100,39,89,79,2
52.3530147075653,38,24,34,100,45,87,81,2
52.3672530651093,41,23,38,109,56,115,101,2
52.3903405666351,43,22,41,115,55,93,79,2
52.4129016399384,40,21,42,120,53,88,74,2
52.4273023605347,39,27,48,126,55,100,84,2
52.4518156051636,40,26,47,117,50,115,100,2
52.4724409580231,37,30,45,107,38,89,81,2
52.4953532218933,34,32,44,110,43,87,81,2
52.5145213603973,34,32,46,110,45,116,101,2
52.5321726799011,32,28,40,109,43,109,96,2
52.5549213886261,31,30,45,120,48,96,79,2
52.5716013908386,28,26,46,126,45,98,81,2
52.5921909809113,28,24,42,103,37,107,87,2
52.6150100231171,29,25,47,104,36,77,63,2
52.6324551105499,28,24,46,98,39,72,58,2
52.6522126197815,25,21,46,107,39,81,69,2
52.674684047699,28,25,46,104,42,105,87,2
52.6920335292816,30,24,48,102,45,97,84,2
52.7143623828888,30,27,45,101,44,95,83,2
52.7347974777222,35,29,46,100,40,115,102,2
52.751704454422,36,28,41,89,36,110,98,2
52.7722091674805,34,26,49,102,34,83,78,2
52.7948212623596,32,24,50,110,33,82,76,2
52.8115699291229,31,21,52,116,40,120,100,2
52.8326787948608,30,20,54,133,43,104,85,2
52.8546996116638,30,21,54,120,39,102,82,2
52.8720829486847,34,21,45,108,39,117,97,2
52.8921253681183,33,22,54,119,38,120,97,2
52.9152154922485,33,23,47,106,32,82,69,2
52.9324517250061,30,23,44,84,33,80,65,2
52.9522259235382,29,23,43,81,33,97,76,2
52.9749093055725,25,24,46,90,35,77,57,2
52.9916334152222,27,24,35,73,33,70,56,2
53.0121929645538,31,24,35,85,34,69,59,2
53.034924030304,32,23,40,94,33,84,67,2
53.0566246509552,32,23,46,111,34,63,53,2
53.072137594223,32,25,43,105,30,74,72,2
53.0946805477142,34,24,46,113,32,78,77,2
53.1121733188629,31,26,45,103,31,96,86,2
53.1322622299194,32,27,41,94,31,82,80,2
53.1548852920532,32,28,39,87,34,81,80,2
53.1713247299194,31,24,41,87,36,75,67,2
53.1921083927155,29,27,48,93,44,97,73,2
53.2148361206055,29,25,50,109,46,82,63,2
53.2316265106201,25,23,54,116,46,84,64,2
53.2526760101318,26,21,55,118,50,91,68,2
53.2750513553619,28,21,57,132,52,101,75,2
53.2916464805603,27,20,49,120,47,81,66,2
53.3125631809235,29,19,49,109,45,80,65,2
53.3348524570465,32,23,42,110,45,81,70,2
53.3516895771027,30,23,38,102,40,100,80,2
53.3728997707367,28,24,33,84,38,90,71,2
53.3946046829224,29,24,31,78,34,89,69,2
53.4108853340149,28,26,31,94,32,89,68,2
53.4321908950806,25,25,40,95,41,94,67,2
53.4547476768494,27,26,41,91,46,84,61,2
53.4713213443756,27,28,42,87,44,85,65,2
53.4917340278625,26,28,44,94,45,87,69,2
53.5149948596954,24,27,46,89,50,105,82,2
53.5316331386566,28,25,39,81,42,102,78,2
53.5525336265564,28,24,40,84,36,88,71,2
53.5742168426514,30,24,42,85,38,82,65,2
53.5924229621887,31,25,39,82,39,99,78,2
53.6123578548431,31,23,38,85,33,88,71,2
53.6348893642426,30,26,40,87,34,85,71,2
53.6529765129089,29,29,43,92,43,86,71,2
53.6721227169037,27,29,41,96,44,102,80,2
53.694983959198,28,28,45,92,44,84,67,2
53.7119235992432,29,30,46,94,44,76,59,2
53.7317752838135,30,31,46,99,44,75,57,2
53.7546536922455,32,28,41,97,35,98,72,2
53.7730689048767,31,26,41,100,33,82,62,2
53.7919521331787,30,28,37,99,29,79,58,2
53.8141934871674,30,26,38,103,33,108,92,2
53.8373947143555,28,25,37,98,41,111,98,2
53.8526017665863,29,25,36,95,41,90,88,2
53.874712228775,31,26,34,93,43,92,89,2
53.8972902297974,31,27,35,97,44,114,103,2
53.9124550819397,32,26,32,94,45,92,80,2
53.934757232666,32,30,33,90,39,91,74,2
53.9572298526764,30,31,36,93,40,88,70,2
53.972719669342,30,31,49,100,36,100,76,2
53.995237827301,32,30,48,100,35,78,62,2
54.0172626972199,33,33,50,95,36,75,58,2
54.0323593616486,31,27,47,95,32,78,59,2
54.0549976825714,34,24,47,94,36,85,69,2
54.0775151252747,32,25,32,79,36,89,74,2
54.091902256012,30,22,34,74,36,87,75,2
54.1149644851685,32,24,36,75,38,86,76,2
54.137167930603,32,25,39,90,41,103,86,2
54.1522464752197,29,25,46,94,40,102,81,2
54.1750016212463,31,24,47,94,39,85,69,2
54.1979668140411,32,27,49,97,40,85,63,2
54.2128396034241,36,25,47,94,34,92,67,2
54.2350587844849,38,24,45,86,37,96,75,2
54.2572240829468,38,24,35,77,34,93,74,2
54.2722361087799,37,27,42,82,34,92,76,2
54.2949359416962,38,25,44,87,34,122,100,2
54.3173885345459,31,24,44,85,37,122,103,2
54.3324239253998,32,26,48,84,34,102,88,2
54.3547866344452,34,26,48,84,36,103,88,2
54.3767898082733,34,24,43,93,42,123,100,2
54.3923144340515,35,28,50,106,44,98,87,2
54.4147703647614,39,28,51,109,42,90,78,2
54.4381828308106,37,26,47,105,41,90,78,2
54.4522125720978,38,27,48,106,42,105,88,2
54.4755601882935,39,27,49,104,36,81,73,2
54.4972398281097,36,24,41,93,34,77,64,2
54.5117132663727,32,25,39,93,35,76,63,2
54.5348687171936,32,27,40,95,35,101,77,2
54.5573546886444,30,25,40,93,37,82,62,2
54.5722267627716,32,26,38,89,39,82,64,2
54.5945217609406,33,25,42,95,40,85,63,2
54.6172113418579,31,25,45,98,39,101,75,2
54.6321773529053,31,27,46,100,40,77,60,2
54.66237616539,30,26,45,101,36,80,64,2
54.6771321296692,28,27,49,107,37,89,72,2
54.6921191215515,29,26,42,97,35,91,76,2
54.7148735523224,30,27,38,100,37,77,75,2
54.7373757362366,31,23,42,103,35,75,75,2
54.7598683834076,34,27,45,112,43,80,78,2
54.7747528553009,31,28,41,123,40,85,80,2
54.7974004745483,31,30,45,128,43,88,82,2
54.8209154605866,34,29,47,123,41,87,74,2
54.8346908092499,32,29,41,120,43,90,74,2
54.8574748039246,31,27,42,130,44,104,86,2
54.8797960281372,31,25,40,111,46,92,76,2
54.8951184749603,32,21,37,121,46,85,72,2
54.9172728061676,28,22,36,115,50,82,71,2
54.9402627944946,27,23,36,120,49,101,82,2
54.9549379348755,26,25,38,107,41,81,64,2
54.9778695106506,26,26,39,111,40,80,63,2
54.9998340606689,27,26,40,96,39,75,58,2
55.0150668621063,27,28,42,98,40,105,75,2
55.0372207164764,29,28,44,94,38,88,70,2
55.0600688457489,29,26,41,87,40,89,71,2
55.0747396945953,30,24,40,81,36,90,74,2
55.0975067615509,28,24,38,86,36,104,79,2
55.1197831630707,29,23,34,80,34,83,70,2
55.1364171504974,29,24,39,98,38,84,65,2
55.1572179794312,29,27,44,110,36,81,65,2
55.1799228191376,28,27,44,116,41,100,80,2
55.1947672367096,28,28,47,120,40,88,77,2
55.2180423736572,28,28,47,119,41,81,73,2
55.2400588989258,27,29,42,112,36,78,74,2
55.2547183036804,35,28,38,99,38,102,91,2
55.277263879776,35,28,39,91,33,85,80,2
55.3000178337097,35,29,35,90,32,85,79,2
55.3149373531342,35,28,41,110,39,85,77,2
55.3372831344605,35,28,41,105,43,97,87,2
55.3597917556763,32,26,39,106,41,86,82,2
55.3746829032898,31,26,41,107,43,84,80,2
55.3976557254791,31,25,43,95,44,83,79,2
55.4198129177094,31,27,39,71,36,83,78,2
55.4348430633545,33,25,38,80,38,106,85,2
55.4572098255157,32,28,38,80,47,101,77,2
55.4797565937042,33,26,34,89,49,99,75,2
55.4966189861298,35,26,27,90,51,99,76,2
55.5176656246185,34,22,44,121,50,98,77,2
55.5397348403931,31,23,47,122,50,55,52,2
55.5548129081726,32,22,47,123,43,75,62,2
55.5779254436493,31,23,47,115,40,77,67,2
55.5998046398163,28,23,49,125,36,80,68,2
55.6147589683533,29,25,36,104,39,83,67,2
55.63725233078,31,25,47,108,41,81,65,2
55.6601655483246,31,24,49,108,43,82,73,2
55.6829493045807,31,23,53,129,44,79,69,2
55.6972732543945,30,24,53,120,42,74,67,2
55.7200620174408,28,24,54,132,44,75,68,2
55.7423062324524,26,28,43,124,44,94,82,2
55.7573823928833,24,29,45,133,41,71,60,2
55.7803008556366,27,28,50,133,41,74,60,2
55.8023653030396,29,28,52,134,43,73,61,2
55.8174734115601,30,31,50,119,42,77,70,2
55.8398492336273,34,27,51,121,41,70,67,2
55.8625242710114,35,25,48,127,42,70,65,2
55.8769280910492,32,28,49,118,41,66,64,2
55.899528503418,36,25,45,115,44,69,65,2
55.9225103855133,35,20,45,111,39,76,65,2
55.9372308254242,31,24,44,102,36,64,53,2
55.9598245620728,31,25,44,105,36,63,51,2
55.9905896186829,31,24,45,121,40,68,54,2
55.9972805976868,30,25,55,142,41,69,54,2
56.0198667049408,31,26,58,153,44,68,55,2
56.042546749115,32,22,58,153,42,77,67,2
56.0573134422302,32,21,57,135,40,85,77,2
56.0798358917236,34,20,51,139,38,83,76,2
56.1023664474487,32,24,44,137,46,95,82,2
56.1173298358917,32,22,39,126,44,85,74,2
56.1397566795349,35,23,39,127,44,78,65,2
56.1622860431671,34,26,46,144,46,68,56,2
56.1774909496307,35,25,44,125,44,68,55,2
56.1999089717865,36,24,44,111,36,71,64,2
56.2223081588745,34,24,44,111,36,76,72,2
56.2373189926147,33,28,44,110,41,83,74,2
56.259911775589,37,26,36,93,41,95,83,2
56.2840211391449,37,26,34,105,46,120,105,2
56.2974908351898,38,25,31,99,43,107,95,2
56.3213794231415,40,26,39,109,46,103,90,2
56.342396736145,37,20,36,107,42,97,87,2
56.3572793006897,34,22,40,117,41,109,93,2
56.3801827430725,33,23,42,109,38,85,71,2
56.4026763439179,35,23,48,110,39,89,70,2
56.4174227714539,33,22,42,104,39,92,73,2
56.4402389526367,34,24,46,113,39,91,72,2
56.462338924408,36,28,45,101,43,84,67,2
56.4773590564728,34,28,47,97,47,88,68,2
56.4999191761017,29,29,41,92,45,86,70,2
56.5223937034607,32,29,40,88,44,81,63,2
56.5378024578095,34,29,38,87,45,80,62,2
56.5598466396332,33,26,43,99,44,86,71,2
56.58251786232,32,26,41,113,45,87,71,2
56.6048994064331,34,25,41,116,46,87,74,2
56.6197936534882,35,26,42,118,43,88,79,2
56.6429765224457,37,25,43,119,42,101,94,2
56.6652812957764,40,23,35,103,41,84,81,2
56.6800372600555,40,22,42,102,33,75,77,2
56.7026154994965,38,26,41,111,38,75,75,2
56.7249593734741,36,32,48,122,51,80,78,2
56.7397933006287,31,31,47,117,55,86,75,2
56.7634012699127,29,32,49,120,55,80,73,2
56.7846806049347,29,33,42,116,57,82,74,2
56.8003726005554,28,30,44,109,53,80,74,2
56.822461605072,29,28,55,117,54,77,70,2
56.844824552536,34,28,54,112,52,80,70,2
56.8598074913025,35,27,53,113,54,80,67,2
56.8826477527618,36,28,56,130,52,77,65,2
56.9048538208008,38,27,55,128,52,79,68,2
56.9194259643555,37,25,38,112,45,85,74,2
56.9510767459869,34,27,39,117,45,87,78,2
56.9648518562317,34,28,40,115,41,88,80,2
56.979752779007,33,27,39,134,45,87,82,2
57.0022854804993,33,33,43,152,51,122,108,2
57.0249664783478,32,32,44,164,48,120,105,2
57.0395827293396,33,32,44,163,44,102,93,2
57.0625262260437,35,32,41,166,45,105,95,2
57.0848753452301,35,33,43,132,42,126,107,2
57.0998120307922,34,28,39,118,38,94,76,2
57.1224248409271,34,28,40,105,35,94,78,2
57.1453111171722,32,27,41,114,45,93,77,2
57.1597669124603,29,26,46,141,45,108,88,2
57.1825065612793,29,27,39,136,47,86,74,2
57.204802274704,27,28,39,130,45,88,76,2
57.2198340892792,27,27,40,131,53,82,70,2
57.2423448562622,30,26,44,129,46,82,67,2
57.2655713558197,33,25,45,127,51,74,64,2
57.2803575992584,35,25,47,127,52,99,89,2
57.3026180267334,35,27,50,125,52,100,92,2
57.3247878551483,37,29,50,114,46,100,91,2
57.3397166728973,33,30,47,111,45,99,91,2
57.3623600006104,30,31,43,86,38,95,94,2
57.3852841854095,30,29,41,102,36,86,84,2
57.4000461101532,29,26,37,108,37,82,80,2
57.4225783348084,29,25,42,114,35,83,79,2
57.4448862075806,31,33,50,120,41,84,80,2
57.4603316783905,35,33,49,115,41,99,88,2
57.4825973510742,33,32,49,113,40,83,77,2
57.5051457881928,34,34,53,115,44,89,80,2
57.5198566913605,33,33,47,113,44,89,79,2
57.5424075126648,32,24,35,97,40,107,95,2
57.5655469894409,28,25,44,101,44,84,74,2
57.5880472660065,28,25,48,87,46,86,73,2
57.6023941040039,27,28,47,78,41,81,72,2
57.6251139640808,25,31,52,86,42,87,82,2
57.6482753753662,25,30,52,89,39,87,78,2
57.6624908447266,26,29,48,91,36,86,78,2
57.6848645210266,27,29,43,90,35,83,77,2
57.7084510326386,29,27,43,95,38,82,74,2
57.7225301265717,30,23,39,85,40,91,74,2
57.7449271678925,33,22,44,90,50,85,67,2
57.768002986908,32,22,42,81,51,86,67,2
57.7825968265533,31,22,43,81,50,85,64,2
57.8048684597015,30,22,46,88,47,84,65,2
57.8285248279572,30,23,45,94,46,104,90,2
57.8426530361176,30,24,41,105,36,100,90,2
57.8657500743866,30,24,43,101,31,100,91,2
57.8882024288177,31,23,44,103,30,100,93,2
57.9025063514709,29,21,41,116,34,122,107,2
57.9249293804169,31,22,38,115,34,92,79,2
57.9484930038452,28,23,43,121,39,83,71,2
57.9623906612396,29,22,39,128,44,82,74,2
57.9848873615265,30,22,38,129,47,103,83,2
58.0080642700195,30,22,38,115,45,77,69,2
58.0223684310913,32,20,39,113,43,78,68,2
58.0449948310852,33,19,38,97,42,85,73,2
58.0682234764099,33,20,39,96,43,100,83,2
58.0825362205505,33,23,37,94,41,77,74,2
58.1051156520844,34,22,42,114,45,76,69,2
58.1281671524048,31,24,42,122,48,80,71,2
58.1423902511597,30,24,46,121,49,96,77,2
58.1652691364288,31,26,45,117,45,87,68,2
58.188285112381,30,25,46,126,49,87,65,2
58.2020003795624,29,27,42,129,49,89,68,2
58.2243564128876,30,29,49,126,46,93,74,2
58.2486817836761,31,28,42,123,43,93,77,2
58.2629618644714,32,26,46,130,41,86,71,2
58.2849006652832,31,28,45,118,34,92,80,2
58.3087882995605,34,28,44,100,27,93,78,2
58.322500705719,36,27,37,93,37,93,78,2
58.3453898429871,34,26,41,102,38,85,75,2
58.3680167198181,33,27,40,96,40,83,74,2
58.383718252182,36,25,46,113,48,80,67,2
58.4050333499908,35,24,48,119,49,77,66,2
58.4286217689514,34,25,47,119,41,70,67,2
58.4424397945404,35,24,43,116,43,70,65,2
58.4648962020874,37,24,47,119,45,78,71,2
58.4881770610809,33,22,42,104,36,74,70,2
58.5023529529572,31,23,44,100,36,79,71,2
58.5248947143555,35,23,45,120,42,107,89,2
58.5486235618591,35,25,46,120,46,96,80,2
58.5707919597626,32,25,39,111,41,91,76,2
58.5849781036377,34,26,39,117,43,102,87,2
58.6081519126892,35,24,39,120,42,108,91,2
58.6309866905212,29,28,49,132,47,88,73,2
58.6531682014465,29,27,49,128,45,89,74,2
58.668105840683,30,28,51,129,49,92,79,2
58.6910316944122,33,27,49,125,48,79,66,2
58.7049272060394,35,28,46,120,51,94,75,2
58.7281224727631,35,23,39,104,42,83,68,2
58.7507963180542,33,23,40,111,38,82,68,2
58.7655432224274,33,23,39,111,37,81,61,2
58.7883327007294,34,22,39,111,38,107,79,2
58.8107509613037,32,21,39,132,39,87,71,2
58.8248739242554,32,22,33,114,40,88,70,2
58.8489348888397,32,21,28,105,42,87,72,2
58.878669500351,30,21,30,107,42,108,85,2
58.8849740028381,27,22,35,120,40,86,74,2
58.9086887836456,28,22,38,113,37,86,69,2
58.9301738739014,28,21,40,120,42,87,72,2
58.9448044300079,28,22,43,124,40,88,71,2
58.9681360721588,30,20,45,125,39,63,58,2
58.9916670322418,29,23,46,125,39,83,75,2
59.0048222541809,29,26,43,102,43,80,76,2
59.0299997329712,28,26,45,97,35,80,73,2
59.050671339035,28,28,46,101,41,81,73,2
59.0652196407318,31,29,47,114,44,81,74,2
59.0881795883179,33,29,48,114,44,75,60,2
59.1107125282288,30,27,50,119,44,80,60,2
59.1252994537354,31,28,48,119,45,85,72,2
59.1480963230133,32,25,45,117,43,82,72,2
59.1708643436432,26,26,41,109,37,83,72,2
59.1848599910736,23,32,40,102,42,79,75,2
59.2080833911896,23,33,39,116,39,71,73,2
59.2308819293976,23,31,36,114,39,68,65,2
59.244838476181,23,32,37,108,38,96,90,2
59.26811003685,28,33,45,116,44,95,90,2
59.2905747890472,32,24,41,120,40,86,83,2
59.3049170970917,31,23,41,102,41,87,82,2
59.3283064365387,33,24,51,110,45,86,81,2
59.3507485389709,32,26,50,110,45,73,62,2
59.3651213645935,29,23,43,93,42,76,62,2
59.3884255886078,27,24,50,101,44,74,60,2
59.4108619689941,29,24,51,101,42,72,59,2
59.4252767562866,27,26,54,109,45,77,65,2
59.448091506958,28,26,56,110,44,88,77,2
59.4710004329681,28,27,56,120,45,85,76,2
59.4935686588287,26,27,49,104,47,86,79,2
59.5074851512909,26,28,47,106,48,110,98,2
59.5306973457336,27,25,38,94,45,107,95,2
59.5536322593689,27,23,35,97,45,87,76,2
59.5673544406891,26,22,33,83,42,88,82,2
59.5910313129425,32,21,36,110,40,107,90,2
59.6134283542633,34,19,39,110,41,85,69,2
59.6273903846741,33,20,39,110,41,85,68,2
59.6508686542511,38,20,40,108,37,98,79,2
59.6737856864929,40,22,51,147,39,108,86,2
59.6874525547028,36,25,58,144,47,91,82,2
59.7106466293335,33,25,55,144,45,93,89,2
59.7333605289459,34,27,55,150,43,91,93,2
59.747460603714,29,27,54,152,45,79,85,2
59.7707164287567,30,26,49,121,44,93,88,2
59.7930884361267,30,23,40,98,33,90,81,2
59.8075587749481,32,23,48,97,38,88,86,2
59.8309650421143,31,20,46,79,40,86,82,2
59.853146314621,32,22,48,77,41,113,97,2
59.8674499988556,31,22,43,83,42,90,87,2
59.8910527229309,30,23,42,86,41,91,88,2
59.9139618873596,30,22,34,82,36,89,75,2
59.9274315834045,31,24,35,95,39,90,75,2
59.9507305622101,28,22,35,99,38,89,79,2
59.9732241630554,30,22,34,95,41,108,92,2
59.987676858902,34,23,33,95,41,107,93,2
60.0105867385864,33,23,33,99,45,107,93,2
60.0334553718567,33,21,31,85,40,112,98,2
60.0475385189056,35,23,34,100,44,113,94,2
60.0708796977997,35,23,39,104,42,100,85,2
60.0928685665131,31,24,39,105,45,100,84,2
60.1075019836426,31,25,41,109,47,100,89,2
60.1313006877899,33,25,40,108,47,120,111,2
60.1537594795227,30,24,35,89,44,96,99,2
60.1674342155457,28,22,33,98,41,89,92,2
60.1906924247742,30,26,40,97,38,91,94,2
60.2125606536865,30,27,42,91,30,99,107,2
60.2280075550079,32,28,42,92,33,90,88,2
60.250673532486,33,27,45,100,35,87,86,2
60.274083852768,33,29,48,110,42,86,85,2
60.2875211238861,33,27,48,125,46,83,83,2
60.3109819889069,35,25,46,123,49,73,58,2
60.3336520195007,33,23,47,127,50,99,88,2
60.3480262756348,32,24,46,126,47,100,90,2
60.3707025051117,33,23,44,107,40,102,92,2
60.3934018611908,31,19,41,90,34,103,92,2
60.4077165126801,29,23,42,100,34,101,93,2
60.4303081035614,29,22,40,98,28,51,53,2
60.4530956745148,33,23,43,125,33,73,61,2
60.4756226539612,35,24,39,121,34,71,68,2
60.4905979633331,36,27,37,122,39,71,72,2
60.5131804943085,36,28,39,113,38,73,71,2
60.5360705852509,37,30,44,115,40,72,70,2
60.550624370575,36,29,41,82,39,88,85,2
60.5732111930847,36,30,42,78,39,91,80,2
60.5961031913757,35,30,44,80,41,92,78,2
60.6110332012177,34,27,43,96,41,92,78,2
60.6331522464752,32,25,40,107,39,97,82,2
60.6564300060272,30,26,42,114,38,85,72,2
60.6710584163666,27,24,41,112,39,82,69,2
60.6934549808502,28,21,37,118,34,83,72,2
60.7156670093536,29,22,49,146,50,99,87,2
60.732311964035,30,23,51,139,49,95,84,2
60.7533946037293,31,22,48,127,47,78,74,2
60.7755839824677,31,22,48,126,50,84,81,2
60.7906441688538,34,24,56,143,56,98,86,2
60.8207757472992,33,23,44,113,44,84,72,2
60.8357117176056,31,26,40,111,48,93,92,2
60.8501360416412,30,27,44,117,48,96,94,2
60.8731124401093,32,30,59,138,52,100,98,2
60.8955664634705,30,28,57,130,48,86,93,2
60.9102861881256,32,31,57,125,47,86,91,2
60.9337487220764,34,29,60,138,51,76,72,2
60.9556894302368,36,29,60,136,51,86,82,2
60.9703598022461,36,26,54,132,45,94,93,2
60.9931056499481,35,29,56,119,43,92,91,2
61.0158393383026,34,28,58,119,44,91,94,2
61.0302176475525,32,28,57,117,40,93,95,2
61.0532457828522,32,28,57,119,42,129,125,2
61.0759456157684,29,28,51,112,41,120,113,2
61.0899729728699,31,25,46,110,41,122,115,2
61.1132318973541,32,23,45,111,39,121,112,2
61.1356256008148,32,27,44,96,35,154,153,2
61.150771856308,33,28,45,93,38,115,121,2
61.1732306480408,35,28,43,91,37,110,118,2
61.1956977844238,35,26,43,97,38,109,117,2
61.2099816799164,34,27,48,90,40,110,118,2
61.2331657409668,35,25,53,105,45,90,82,2
61.2556350231171,33,24,53,120,44,93,85,2
61.270015001297,35,24,52,116,44,93,86,2
61.2932486534119,35,27,52,109,43,95,87,2
61.3157441616058,37,28,46,114,50,94,85,2
61.3300359249115,36,25,41,107,46,63,58,2
61.353443145752,38,25,40,97,45,79,57,2
61.3755960464478,36,25,39,91,45,94,66,2
61.398729801178,38,26,38,92,45,94,64,2
61.4132225513458,39,24,36,88,34,93,63,2
61.436470746994,37,25,33,87,33,114,85,2
61.4582245349884,34,26,39,91,32,100,84,2
61.4731373786926,32,27,44,102,36,90,82,2
61.4957127571106,32,25,45,105,36,88,79,2
61.5181524753571,33,26,51,121,40,93,84,2
61.5332741737366,33,27,50,112,39,92,84,2
61.555629491806,33,26,48,107,41,103,89,2
61.5799036026001,34,29,45,108,41,101,84,2
61.5933351516724,34,29,48,120,44,101,86,2
61.6174168586731,32,29,45,124,43,97,85,2
61.6381995677948,32,28,46,122,45,77,68,2
61.6532821655273,33,29,44,127,46,72,63,2
61.6751589775086,33,27,43,115,43,75,63,2
61.6982350349426,32,25,38,104,40,75,63,2
61.7131607532501,30,25,44,97,39,73,60,2
61.7356915473938,32,23,48,127,44,72,61,2
61.7584142684937,32,24,45,121,40,95,84,2
61.7724771499634,32,26,44,122,41,96,86,2
61.7958972454071,34,27,42,116,41,97,86,2
61.8184216022492,34,25,57,147,41,98,85,2
61.8325774669647,32,27,54,126,36,107,87,2
61.8557062149048,34,26,56,126,40,90,75,2
61.8783056735992,37,22,58,131,41,85,73,2
61.8925046920776,34,22,60,136,43,85,79,2
61.9152593612671,35,22,44,109,40,85,78,2
61.9388799667358,35,21,49,109,41,94,83,2
61.9524574279785,32,18,46,106,37,89,84,2
61.9756762981415,31,19,44,102,36,90,83,2
61.9986429214478,31,18,43,94,34,89,78,2
62.0127811431885,31,23,36,64,37,90,82,2
62.0357162952423,35,25,31,74,35,106,100,2
62.0583779811859,34,29,32,73,35,101,90,2
62.0724320411682,34,29,33,70,34,100,89,2
62.0971734523773,34,31,35,74,33,102,90,2
62.1182379722595,37,27,38,72,31,125,107,2
62.1324818134308,33,27,38,87,40,98,85,2
62.1556360721588,38,24,39,102,40,98,83,2
62.1784703731537,37,25,47,109,43,101,94,2
62.1921720504761,39,26,43,105,42,117,109,2
62.2156946659088,36,26,43,110,42,99,102,2
62.2382528781891,35,27,43,88,39,91,96,2
62.2526183128357,31,28,46,86,46,94,99,2
62.2756102085114,33,27,42,81,45,90,92,2
62.2976965904236,34,26,46,84,48,95,92,2
62.3208813667297,32,28,50,99,52,88,82,2
62.3356595039368,35,27,49,101,51,90,84,2
62.3583025932312,36,31,54,99,44,86,80,2
62.3798325061798,35,33,50,99,45,90,79,2
62.3980870246887,36,33,47,97,42,75,62,2
62.4176602363586,41,31,48,85,36,75,57,2
62.4399168491364,39,32,50,105,37,73,55,2
62.4568033218384,40,27,45,111,42,79,63,2
62.477401971817,41,23,46,114,45,90,72,2
62.500120639801,37,25,46,119,46,77,68,2
62.5169806480408,33,26,43,113,46,77,68,2
62.5449187755585,35,23,38,94,42,77,72,2
62.5611386299133,35,26,32,75,37,110,85,2
62.5768210887909,37,27,39,87,31,103,76,2
62.5974535942078,37,26,46,113,33,103,76,2
62.6200687885284,37,26,49,125,37,103,76,2
62.6381154060364,34,28,49,123,37,101,70,2
62.6575171947479,32,27,49,124,37,66,53,2
62.6799943447113,29,32,55,130,42,80,77,2
62.6967842578888,29,32,54,122,42,79,76,2
62.7177362442017,29,33,49,118,42,79,81,2
62.7399451732636,30,31,49,118,41,88,86,2
62.7585780620575,29,29,50,126,43,92,87,2
62.7773685455322,33,24,48,138,41,82,70,2
62.8001296520233,33,24,48,128,38,81,70,2
62.8167808055878,30,25,49,121,38,80,68,2
62.8375601768494,31,28,52,122,38,72,62,2
62.8602426052094,33,30,56,117,44,87,69,2
62.8769764900208,33,30,52,99,42,83,69,2
62.8978910446167,35,30,52,110,42,84,70,2
62.9201462268829,35,26,55,125,43,83,66,2
62.9366314411163,38,23,53,127,44,84,65,2
62.957531452179,38,21,52,130,37,96,83,2
62.9799680709839,36,21,47,117,38,106,91,2
62.9960706233978,36,21,45,118,39,108,93,2
63.0178818702698,38,21,45,109,40,109,96,2
63.0400519371033,36,22,45,116,42,113,98,2
63.0566260814667,34,24,45,110,44,81,75,2
63.077739238739,33,25,44,106,45,86,69,2
63.1001527309418,32,24,50,103,47,86,66,2
63.1169078350067,31,24,49,109,42,91,71,2
63.137708902359,30,25,49,108,41,86,68,2
63.1600043773651,31,27,55,137,45,84,63,2
63.1769342422485,34,28,58,152,47,80,69,2
63.19753241539,36,30,57,146,44,103,94,2
63.2199673652649,35,31,54,137,45,102,91,2
63.2367174625397,40,34,55,130,44,101,92,2
63.2574238777161,41,30,45,106,41,105,98,2
63.2799837589264,40,28,47,102,41,90,85,2
63.3025422096253,38,27,40,109,45,91,83,2
63.318021774292,39,27,44,115,46,91,85,2
63.3406779766083,35,23,45,122,47,92,90,2
63.3626079559326,35,23,43,115,47,87,84,2
63.3769373893738,37,27,42,116,43,87,83,2
63.4001367092133,36,27,42,103,41,55,57,2
63.4225211143494,34,26,37,96,40,94,79,2
63.4375610351563,35,26,36,94,42,98,80,2
63.4597780704498,33,27,37,96,51,99,81,2
63.4853072166443,30,23,35,73,50,101,80,2
63.4975829124451,33,22,36,85,48,104,87,2
63.5201370716095,32,23,38,90,48,64,62,2
63.5444629192352,32,23,40,85,47,57,52,2
63.5593659877777,34,22,45,99,34,81,77,2
63.5812833309174,33,23,47,102,32,83,83,2
63.6025881767273,36,28,45,103,32,79,82,2
63.6202709674835,35,27,47,124,31,80,84,2
63.6399340629578,34,28,49,128,34,79,85,2
63.6628773212433,37,28,44,115,34,79,77,2
63.6795747280121,39,27,42,122,34,81,77,2
63.7012760639191,36,23,44,122,37,78,72,2
63.7227802276611,35,24,43,99,37,76,67,2
63.7402439117432,34,23,37,98,34,78,70,2
63.7599060535431,33,27,40,100,35,81,79,2
63.782833814621,35,26,39,105,35,82,84,2
63.7996399402618,34,29,39,96,36,83,84,2
63.8199412822723,35,29,41,99,39,84,86,2
63.8425307273865,38,30,42,97,37,83,82,2
63.8593220710754,36,29,41,95,41,58,61,2
63.8794810771942,32,30,43,93,42,73,75,2
63.9025776386261,33,29,43,94,44,78,83,2
63.9193851947784,35,28,45,112,42,78,84,2
63.9403040409088,32,27,48,108,43,79,90,2
63.9624876976013,33,24,47,110,38,103,104,2
63.9801149368286,38,24,47,114,40,90,88,2
63.999650478363,39,22,48,124,39,87,81,2
64.0225193500519,36,19,43,111,44,88,80,2
64.0402691364288,36,21,45,118,43,89,79,2
64.0601840019226,36,21,48,121,44,85,80,2
64.0826618671417,32,21,45,116,46,85,79,2
64.1016602516174,31,25,47,108,46,87,81,2
64.1205201148987,34,27,46,112,40,89,86,2
64.1424703598022,37,27,41,104,40,101,91,2
64.1609399318695,33,28,39,97,37,80,71,2
64.1798686981201,32,28,39,111,34,78,70,2
64.2024924755097,34,28,33,123,35,77,72,2
64.2193248271942,32,26,36,120,37,78,74,2
64.2400372028351,28,25,36,122,39,84,74,2
64.2630016803741,33,24,38,133,42,81,74,2
64.2850790023804,33,23,41,121,40,81,76,2
64.3005430698395,33,22,49,127,40,79,71,2
64.3225207328796,32,24,47,117,40,93,75,2
64.3448786735535,33,24,48,119,40,75,67,2
64.3601033687592,32,26,52,128,39,75,66,2
64.3825626373291,37,26,52,132,50,80,74,2
64.4054629802704,36,24,44,113,49,81,75,2
64.4200267791748,36,27,44,114,47,97,88,2
64.4425477981567,36,27,43,116,47,96,85,2
64.4647858142853,37,27,43,117,48,98,92,2
64.4804604053497,32,28,42,120,40,96,89,2
64.5025918483734,31,29,41,120,37,94,86,2
64.5250470638275,35,23,42,120,36,56,61,2
64.5400342941284,36,25,41,113,41,54,60,2
64.564455986023,38,26,47,123,52,80,68,2
64.593496799469,38,27,47,118,51,85,69,2
64.6003441810608,39,27,46,116,51,90,71,2
64.6225550174713,37,28,49,126,51,91,71,2
64.6450703144074,35,27,51,143,53,93,72,2
64.6603193283081,32,25,42,122,42,91,69,2
64.6826345920563,32,22,45,119,44,87,64,2
64.7051787376404,30,22,46,124,47,83,65,2
64.7204411029816,32,23,53,128,48,85,67,2
64.7425255775452,37,24,57,139,46,87,72,2
64.7654988765717,36,24,55,133,44,87,77,2
64.7799959182739,36,24,55,131,44,86,77,2
64.8025317192078,36,24,54,136,42,85,75,2
64.8249938488007,38,22,43,128,40,79,74,2
64.8400371074677,35,21,40,102,38,73,69,2
64.8625950813293,35,23,40,107,39,48,50,2
64.8850064277649,36,23,33,100,35,54,53,2
64.9004867076874,36,24,38,106,36,81,67,2
64.9221575260162,33,25,42,101,40,88,67,2
64.9455807209015,30,28,40,94,38,90,67,2
64.9598667621613,30,26,42,90,40,86,61,2
64.9825100898743,31,26,45,99,40,88,66,2
65.0051248073578,35,28,48,113,42,88,70,2
65.020055770874,34,28,46,119,42,85,72,2
65.0427711009979,34,24,45,120,41,84,73,2
65.065083026886,36,23,44,128,40,85,74,2
65.0800378322601,34,27,45,128,45,85,75,2
65.103052854538,33,25,40,110,43,56,56,2
65.1252355575562,33,25,36,99,39,51,52,2
65.140040397644,34,28,38,115,43,77,66,2
65.1625463962555,34,30,37,119,42,86,77,2
65.1853032112122,35,26,43,137,41,80,70,2
65.2077839374542,36,27,40,135,43,82,71,2
65.2225096225739,35,27,42,136,45,82,70,2
65.2450165748596,36,23,40,131,42,80,69,2
65.2676653862,35,23,41,121,41,90,70,2
65.2831251621246,36,23,40,110,44,88,68,2
65.3047170639038,35,25,44,103,42,90,70,2
65.3288123607635,36,24,43,107,40,103,77,2
65.3425154685974,34,26,47,116,50,103,81,2
65.3649077415466,33,25,48,126,53,89,75,2
65.3876307010651,30,25,41,112,47,91,76,2
65.4025473594666,29,21,38,116,48,95,81,2
65.4249126911163,29,21,37,115,48,100,85,2
65.4477646350861,30,21,34,101,38,86,72,2
65.4621679782867,30,23,37,101,40,83,68,2
65.4859020709992,31,23,40,123,41,81,68,2
65.5075225830078,30,25,42,123,41,81,65,2
65.5226402282715,29,27,46,119,41,89,69,2
65.5538771152496,29,27,48,122,41,89,70,2
65.568083524704,30,27,48,134,37,93,73,2
65.5824983119965,32,27,46,117,34,95,74,2
65.6051366329193,33,25,43,111,34,91,68,2
65.627464056015,35,23,40,111,34,77,58,2
65.6436309814453,37,22,41,129,35,80,59,2
65.6652488708496,37,22,41,109,37,76,57,2
65.6876382827759,36,22,44,111,39,82,60,2
65.7026464939117,36,23,54,132,44,93,71,2
65.7245967388153,33,27,61,144,44,82,68,2
65.747677564621,31,30,59,122,45,79,78,2
65.7626914978027,31,29,56,117,43,79,75,2
65.7850961685181,30,31,54,112,42,70,72,2
65.8075435161591,30,32,51,119,40,102,94,2
65.8225252628326,35,28,44,115,37,103,94,2
65.8450484275818,36,26,44,117,39,104,88,2
65.8675606250763,36,27,49,124,45,103,89,2
65.8830502033234,39,26,50,139,46,105,90,2
65.9051520824432,37,24,49,143,43,75,64,2
65.9276134967804,33,23,46,140,44,72,64,2
65.9500637054443,31,22,45,137,40,68,58,2
65.96457862854,29,23,43,150,35,70,59,2
65.9884541034699,29,23,52,178,50,72,70,2
66.0026874542236,31,24,49,158,50,55,62,2
66.0251359939575,31,26,49,153,52,83,74,2
66.0476567745209,32,25,47,155,53,85,74,2
66.0627212524414,32,27,52,162,55,87,91,2
66.0852251052856,31,24,49,137,45,90,88,2
66.1075921058655,28,23,48,142,46,88,88,2
66.1302754878998,31,24,49,141,44,57,77,2
66.1454675197601,31,25,59,157,48,75,85,2
66.1679804325104,31,26,53,140,45,77,81,2
66.1901657581329,29,26,45,118,39,82,82,2
66.2050731182098,33,29,47,109,37,83,82,2
66.2275216579437,31,30,46,116,37,85,85,2
66.2500922679901,31,30,48,113,31,90,88,2
66.2654039859772,32,26,50,104,31,87,77,2
66.2875123023987,34,27,54,112,37,76,69,2
66.3101582527161,31,26,57,119,41,78,75,2
66.3257775306702,34,23,56,112,41,78,69,2
66.3480801582336,30,23,53,116,45,56,56,2
66.3702065944672,30,25,54,117,45,65,61,2
66.3850295543671,33,24,52,124,41,78,69,2
66.4078357219696,34,29,55,141,44,77,66,2
66.4301824569702,30,31,55,148,44,77,69,2
66.4450087547302,30,34,52,139,44,77,70,2
66.4676828384399,29,33,50,146,48,67,73,2
66.4904592037201,23,34,51,148,52,69,75,2
66.5046877861023,21,28,42,128,46,68,72,2
66.5271551609039,25,30,44,121,47,67,73,2
66.5512516498566,27,29,38,117,45,75,78,2
66.5650990009308,31,30,36,119,44,100,85,2
66.5876960754395,34,30,35,108,43,91,76,2
66.61203956604,35,29,36,112,42,91,77,2
66.6246266365051,35,26,40,111,45,95,79,2
66.648453950882,36,29,41,122,47,100,81,2
66.6701490879059,33,30,42,117,44,79,64,2
66.6850950717926,33,29,41,114,41,76,61,2
66.707682132721,32,29,41,117,41,78,64,2
66.7302379608154,31,28,42,128,39,74,59,2
66.7453129291534,31,27,44,115,39,52,51,2
66.7685904502869,30,24,42,102,38,49,55,2
66.7903523445129,29,26,61,167,44,79,70,2
66.8057341575623,30,26,60,176,47,80,69,2
66.8275923728943,33,30,59,169,48,83,71,2
66.8510978221893,30,26,60,167,45,84,68,2
66.8649418354034,28,26,60,173,47,82,64,2
66.8877084255219,30,28,44,113,40,54,49,2
66.9102182388306,29,32,44,90,35,72,69,2
66.92542719841,27,29,42,88,39,76,82,2
66.9477326869965,34,30,37,84,40,77,83,2
66.9703612327576,35,31,39,115,40,78,84,2
66.9862077236176,35,28,34,111,43,78,84,2
67.0077624320984,35,25,31,114,46,62,73,2
67.0301773548126,36,25,32,114,40,69,57,2
67.0454139709473,31,24,43,143,42,69,57,2
67.0676250457764,31,24,43,117,45,69,55,2
67.0902454853058,30,25,46,119,43,72,59,2
67.1133704185486,30,25,47,114,41,68,52,2
67.1280455589294,33,24,57,155,44,56,54,2
67.1503047943115,34,25,52,135,45,86,72,2
67.1737561225891,34,23,51,134,44,90,75,2
67.1880438327789,36,23,50,133,43,88,71,2
67.2101917266846,36,25,57,175,43,88,72,2
67.233987569809,34,26,47,141,39,85,68,2
67.247832775116,34,29,48,138,38,62,65,2
67.2703952789307,34,29,50,146,43,79,84,2
67.2926487922669,31,32,53,155,47,82,86,2
67.3075618743897,32,30,49,125,45,82,85,2
67.3301303386688,31,29,52,124,46,85,85,2
67.3538036346436,30,30,51,132,53,80,74,2
67.3679068088532,29,30,49,124,47,55,46,2
67.3909924030304,29,27,47,117,43,58,50,2
67.4138202667236,30,27,45,113,45,79,63,2
67.4279003143311,30,33,40,119,53,84,70,2
67.4497718811035,34,29,40,118,43,86,71,2
67.4810140132904,34,31,42,118,43,86,71,2
67.4967198371887,34,32,43,114,46,79,67,2
67.5102577209473,31,31,39,104,47,58,54,2
67.5325734615326,33,28,45,129,46,78,65,2
67.5476031303406,28,27,43,131,48,79,67,2
67.570249080658,28,24,41,128,49,84,69,2
67.5926213264465,27,24,41,132,47,88,70,2
67.6078782081604,27,24,46,141,46,92,79,2
67.6301889419556,29,22,40,105,38,65,63,2
67.6527743339539,32,27,43,95,38,113,98,2
67.6678178310394,31,28,44,100,36,111,99,2
67.690150976181,34,29,57,160,45,114,102,2
67.7125797271729,35,28,56,161,45,113,100,2
67.7276723384857,33,28,58,164,45,114,100,2
67.7502362728119,33,25,56,170,45,68,66,2
67.772120475769,34,23,60,174,47,91,87,2
67.7875986099243,34,22,46,117,41,88,82,2
67.810284614563,32,22,45,100,40,85,78,2
67.8329899311066,35,22,42,98,42,89,84,2
67.8479735851288,34,24,44,92,43,95,91,2
67.87047290802,33,26,37,99,43,91,79,2
67.8926765918732,30,26,39,108,42,91,83,2
67.9079382419586,31,28,36,110,45,90,81,2
67.9305381774902,28,28,36,116,42,90,82,2
67.952406167984,27,26,31,122,39,80,70,2
67.9677133560181,25,26,36,115,43,58,58,2
67.9901728630066,28,25,34,106,44,61,63,2
68.0125496387482,33,24,35,102,39,87,85,2
68.0361270904541,35,25,44,133,45,88,80,2
68.050342798233,35,24,45,134,50,88,79,2
68.0726833343506,37,22,41,129,56,106,93,2
68.0957946777344,34,24,40,133,54,107,92,2
68.1102120876312,29,23,46,154,59,88,77,2
68.1326546669006,26,21,40,136,57,82,75,2
68.1568946838379,27,23,44,130,56,85,77,2
68.1702604293823,26,23,48,126,46,101,91,2
68.19482421875,30,21,52,138,45,102,91,2
68.2159023284912,30,22,47,119,44,101,90,2
68.2301840782166,29,21,54,117,41,101,89,2
68.2529211044312,31,19,51,139,38,111,97,2
68.275808095932,30,20,51,145,37,81,73,2
68.2902600765228,28,22,51,135,40,76,71,2
68.3126502037048,30,24,52,132,36,79,71,2
68.3354141712189,33,26,48,130,46,82,73,2
68.3505535125732,40,28,48,117,45,90,78,2
68.3726563453674,40,30,45,108,49,88,83,2
68.3957340717316,42,28,45,115,47,87,79,2
68.4104759693146,41,26,46,115,47,83,77,2
68.4328365325928,40,25,41,108,41,88,78,2
68.4558823108673,33,24,42,111,42,90,74,2
68.4702205657959,32,23,43,120,38,90,64,2
68.4926669597626,27,25,42,118,38,91,68,2
68.5158579349518,28,29,40,118,39,92,69,2
68.5302495956421,31,30,41,117,38,91,72,2
68.5531373023987,30,29,38,97,45,85,71,2
68.5758345127106,31,33,37,87,48,83,69,2
68.5903167724609,35,32,34,76,47,83,65,2
68.6132323741913,35,29,48,109,47,83,64,2
68.6362860202789,31,28,46,104,45,73,54,2
68.6502296924591,31,30,48,109,45,105,91,2
68.6726145744324,32,27,50,109,46,111,101,2
68.6958889961243,28,27,64,150,50,109,101,2
68.7101609706879,26,27,56,131,52,113,105,2
68.7327492237091,29,27,59,143,54,117,110,2
68.7559189796448,30,28,58,140,48,124,104,2
68.7704682350159,30,26,56,140,47,119,94,2
68.7927873134613,32,29,39,92,44,121,94,2
68.8158214092255,37,28,36,98,42,120,92,2
68.8302521705627,38,30,37,82,40,116,90,2
68.8527636528015,41,30,34,75,39,75,80,2
68.8758773803711,40,30,44,100,34,72,79,2
68.8907372951508,44,31,49,106,35,79,91,2
68.9126181602478,42,31,51,100,39,80,89,2
68.9359023571014,42,28,50,99,38,88,97,2
68.9513509273529,40,29,54,120,38,92,86,2
68.9736342430115,41,29,51,118,43,98,91,2
68.9965291023254,39,28,61,147,41,93,80,2
69.0185525417328,41,27,59,147,37,91,82,2
69.0329818725586,38,27,57,152,35,84,73,2
69.0559186935425,38,25,57,152,44,101,81,2
69.0785448551178,38,25,52,140,38,99,79,2
69.0927813053131,34,24,37,106,38,99,80,2
69.1158590316772,34,26,44,130,40,100,81,2
69.1386423110962,36,24,46,133,40,105,81,2
69.1529278755188,36,22,40,117,32,92,79,2
69.1762759685516,36,24,44,117,34,87,74,2
69.1985847949982,37,24,52,124,40,89,77,2
69.212655544281,35,27,50,105,44,92,82,2
69.2361567020416,34,28,49,95,45,104,89,2
69.2584502696991,32,29,53,99,44,87,75,2
69.2728638648987,32,27,52,111,45,89,76,2
69.2959241867065,31,28,48,110,42,93,85,2
69.3182461261749,28,28,44,106,36,91,80,2
69.3327209949493,25,28,44,105,40,91,76,2
69.3559198379517,26,28,47,113,46,90,74,2
69.3790044784546,25,32,47,108,46,94,79,2
69.3926784992218,25,33,49,112,47,88,71,2
69.4245676994324,27,29,49,126,56,83,65,2
69.438821554184,28,34,58,139,58,61,58,2
69.4529118537903,29,33,53,127,56,91,80,2
69.4762647151947,33,30,58,144,55,95,79,2
69.4984202384949,32,28,56,146,56,95,75,2
69.512638092041,33,29,59,136,51,96,76,2
69.5363454818726,34,26,52,129,49,114,92,2
69.5584118366241,34,25,55,138,45,91,78,2
69.5727016925812,33,27,50,118,46,89,81,2
69.596114397049,34,31,50,104,45,93,90,2
69.6190485954285,35,31,47,95,41,93,91,2
69.63236784935,36,30,55,145,41,85,85,2
69.6555247306824,34,31,54,155,45,91,84,2
69.6783754825592,33,31,52,150,48,84,82,2
69.6931965351105,31,27,49,149,44,77,78,2
69.7159285545349,28,26,46,148,43,80,83,2
69.738391160965,24,23,36,104,42,94,88,2
69.7527103424072,26,26,36,85,40,86,85,2
69.7760059833527,25,24,35,93,38,87,80,2
69.7985737323761,27,23,37,104,45,89,75,2
69.8126277923584,29,24,46,136,50,87,73,2
69.8360664844513,36,24,44,132,52,99,90,2
69.8580696582794,34,21,44,133,52,105,92,2
69.8723528385162,36,22,45,126,51,107,94,2
69.8960320949554,36,27,44,118,47,108,94,2
69.9186584949493,37,26,40,111,45,120,99,2
69.9409170150757,32,29,41,111,42,89,69,2
69.9561443328857,36,28,39,102,41,99,77,2
69.9778530597687,34,29,42,113,42,96,76,2
70.0010848045349,34,25,49,128,49,100,80,2
70.0159614086151,35,26,46,108,47,90,75,2
70.0385572910309,35,22,50,108,48,90,77,2
70.0610070228577,34,23,49,119,50,108,94,2
70.0758593082428,36,23,52,122,49,109,93,2
70.0985999107361,36,22,48,130,42,103,89,2
70.1210677623749,35,20,50,129,43,98,89,2
70.1363642215729,35,22,52,131,43,106,101,2
70.1586306095123,35,23,52,139,41,75,83,2
70.1808195114136,37,27,52,133,45,77,89,2
70.1958560943604,37,27,50,118,49,77,88,2
70.2188868522644,36,27,48,127,50,77,85,2
70.2409493923187,35,28,44,125,50,84,79,2
70.2558934688568,37,28,42,105,49,81,72,2
70.278450012207,33,25,37,105,47,81,68,2
70.3009011745453,31,25,39,102,41,83,69,2
70.3151836395264,32,30,50,99,44,85,68,2
70.3387150764465,36,31,48,101,43,62,52,2
70.3609147071838,36,32,50,109,44,56,53,2
70.3752927780151,36,32,50,107,42,93,66,2
70.3984389305115,38,34,57,139,48,96,66,2
70.4209582805634,39,29,49,131,46,95,64,2
70.4353532791138,35,29,50,126,46,95,65,2
70.4583625793457,33,27,49,119,47,105,72,2
70.4823961257935,34,27,49,133,47,78,62,2
70.4953734874725,32,26,45,110,43,74,61,2
70.5186862945557,30,27,42,107,39,70,62,2
70.5409822463989,30,25,44,108,37,70,61,2
70.5555651187897,31,28,45,127,33,61,59,2
70.5784447193146,31,29,47,112,35,77,68,2
70.6011843681335,33,31,45,100,38,77,68,2
70.6153070926666,37,32,50,128,42,79,70,2
70.6387350559235,37,31,47,132,42,78,71,2
70.6609034538269,38,29,49,124,46,79,69,2
70.6752014160156,38,28,46,123,51,78,69,2
70.6984987258911,37,26,51,154,52,83,68,2
70.7209680080414,33,26,47,137,51,89,79,2
70.7354094982147,39,28,50,138,51,90,82,2
70.7592899799347,39,28,47,128,49,90,78,2
70.7810745239258,37,28,50,135,44,87,80,2
70.7954032421112,37,31,43,114,45,83,81,2
70.8184027671814,36,30,46,124,49,86,78,2
70.8414704799652,31,29,44,118,53,85,76,2
70.8554420471191,29,29,43,122,52,104,91,2
70.8784725666046,28,28,40,116,52,90,78,2
70.9014685153961,30,24,39,109,47,88,76,2
70.922842502594,32,23,39,107,45,85,73,2
70.9384021759033,29,21,39,116,40,84,71,2
70.9614863395691,30,22,39,114,42,59,53,2
70.9834132194519,30,21,42,113,48,86,74,2
70.9986691474915,31,20,47,123,49,92,76,2
71.0212695598602,29,22,46,139,54,90,78,2
71.0434544086456,31,22,47,131,53,90,78,2
71.0584590435028,33,24,48,141,56,104,90,2
71.0813460350037,34,24,56,147,57,102,91,2
71.1036944389343,32,29,51,130,55,100,93,2
71.1186997890472,35,29,48,104,48,97,88,2
71.1405174732208,39,30,53,122,54,96,88,2
71.1634697914124,38,27,57,126,51,84,79,2
71.1787443161011,39,28,50,118,44,103,86,2
71.2006678581238,38,27,52,116,47,107,86,2
71.2234110832214,36,26,53,127,46,108,87,2
71.2379868030548,33,26,48,114,47,109,90,2
71.2612602710724,33,29,43,108,45,113,96,2
71.283563375473,36,29,40,108,48,89,85,2
71.2973251342774,38,33,50,145,56,99,92,2
71.3204798698425,36,33,49,142,54,100,92,2
71.3439543247223,38,34,48,148,50,105,92,2
71.3574655056,37,33,47,138,49,97,83,2
71.3805162906647,35,33,51,144,47,86,74,2
71.4037795066834,33,27,39,111,36,90,77,2
71.417548418045,34,27,38,104,42,100,90,2
71.440505027771,31,24,46,114,41,96,89,2
71.4628782272339,33,23,49,133,46,94,85,2
71.478093624115,32,23,49,151,51,89,83,2
71.5009870529175,32,22,50,156,53,61,65,2
71.5238380432129,34,23,55,175,54,38,48,2
71.5378940105438,33,22,50,163,52,59,55,2
71.5612788200378,33,21,48,148,50,66,58,2
71.5834133625031,32,22,43,124,43,67,56,2
71.5979697704315,33,24,43,125,42,73,59,2
71.6211059093475,30,25,52,132,40,72,64,2
71.6441309452057,35,26,55,141,44,80,70,2
71.6573989391327,37,27,54,139,41,79,72,2
71.6805846691132,37,27,55,145,43,78,71,2
71.7038922309876,35,26,59,157,45,78,70,2
71.7177255153656,37,26,53,147,41,80,70,2
71.7409179210663,32,25,50,143,38,76,77,2
71.763601064682,30,24,49,143,41,76,78,2
71.777756690979,30,27,51,140,39,78,84,2
71.8015801906586,34,27,54,141,43,82,93,2
71.8235654830933,36,28,49,129,46,82,90,2
71.8460488319397,36,30,48,123,45,81,79,2
71.8609762191772,35,32,54,141,42,79,77,2
71.8837006092072,36,27,51,137,40,78,72,2
71.9058773517609,36,30,50,123,32,75,58,2
71.9208443164825,38,31,50,113,32,81,60,2
71.9433922767639,41,28,48,110,36,78,61,2
71.966048002243,42,29,50,129,35,79,59,2
71.9809165000916,40,30,54,133,39,87,67,2
72.0034351348877,39,26,46,120,37,84,70,2
72.0263679027557,36,25,46,119,32,76,68,2
72.0408959388733,39,25,49,134,30,85,75,2
72.063502073288,41,22,42,100,31,85,76,2
72.0872402191162,41,25,44,95,29,78,75,2
72.1003160476685,44,29,46,97,30,88,81,2
72.1235258579254,42,31,47,107,39,98,85,2
72.1459984779358,36,30,44,96,47,83,75,2
72.1609201431274,34,30,43,97,48,82,74,2
72.1838376522064,33,28,38,104,51,85,71,2
72.2061035633087,30,24,34,108,51,90,82,2
72.2204926013947,29,26,35,112,54,84,80,2
72.2434132099152,28,27,37,125,47,90,87,2
72.2662317752838,29,27,38,130,49,88,89,2
72.2802345752716,31,28,43,136,48,109,103,2
72.3035092353821,29,29,49,143,52,97,88,2
72.3260021209717,31,24,48,147,45,94,84,2
72.3491399288178,32,26,49,135,49,87,80,2
72.3645453453064,36,26,47,130,48,87,77,2
72.3849198818207,36,26,52,124,45,51,55,2
72.4078688621521,37,26,45,127,42,78,71,2
72.4257853031159,37,27,45,109,41,77,74,2
72.4451990127564,37,23,40,116,35,76,67,2
72.467903137207,32,25,45,119,34,76,68,2
72.484534740448,30,26,37,113,47,77,67,2
72.5056731700897,29,24,39,105,45,64,69,2
72.5278182029724,27,25,41,115,48,96,86,2
72.5440099239349,29,28,45,126,48,96,90,2
72.5656740665436,27,26,42,119,51,99,92,2
72.5878312587738,28,26,41,122,41,99,92,2
72.6047539710999,28,27,44,132,41,90,79,2
72.6251776218414,28,27,42,124,38,82,74,2
72.6478052139282,27,26,39,103,42,82,72,2
72.6653552055359,27,26,42,130,50,78,68,2
72.6849617958069,28,22,38,130,48,78,69,2
72.7077479362488,30,23,38,112,48,79,69,2
72.7245898246765,31,21,47,130,48,78,76,2
72.745130777359,31,23,48,134,45,80,78,2
72.7676584720612,35,26,47,113,38,80,89,2
72.7844505310059,36,26,46,109,40,84,92,2
72.8052358627319,34,26,44,110,44,82,90,2
72.8277461528778,36,26,40,102,47,52,69,2
72.8445606231689,37,26,45,119,60,72,83,2
72.8654057979584,41,29,45,116,58,109,119,2
72.8877329826355,43,30,47,120,57,111,123,2
72.904495716095,42,30,48,122,56,113,127,2
72.9263002872467,39,30,44,109,53,113,127,2
72.9476997852325,40,31,44,94,39,101,119,2
72.964551448822,34,25,43,98,39,93,89,2
72.985271692276,31,25,44,96,42,95,83,2
73.0078566074371,31,26,43,93,42,94,78,2
73.0253789424896,31,28,44,98,47,95,82,2
73.0452229976654,32,26,40,103,48,94,85,2
73.0677530765533,33,28,44,119,50,70,73,2
73.0903182029724,33,31,42,110,47,58,71,2
73.1073982715607,32,30,43,116,49,93,93,2
73.1279220581055,34,30,45,113,45,93,90,2
73.1447925567627,33,31,45,122,43,92,83,2
73.1647253036499,30,30,43,114,37,90,79,2
73.1953217983246,28,29,47,138,40,90,80,2
73.2047781944275,29,29,46,132,36,52,53,2
73.2252564430237,32,32,52,151,40,86,81,2
73.2476005554199,30,29,52,142,41,99,94,2
73.2644982337952,31,29,53,138,43,98,96,2
73.2851657867432,33,32,50,128,41,100,95,2
73.3078713417053,37,31,56,147,48,101,99,2
73.3249392509461,35,27,50,128,45,88,87,2
73.3453326225281,35,28,47,129,47,96,88,2
73.3680744171143,34,28,45,131,48,93,87,2
73.3853430747986,32,26,46,146,51,91,85,2
73.40536236763,28,26,42,128,44,90,81,2
73.4358735084534,29,26,38,126,42,75,73,2
73.4446077346802,31,27,39,113,43,54,69,2
73.4652590751648,32,27,39,111,47,78,79,2
73.4876449108124,34,25,43,110,46,83,83,2
73.504576921463,35,27,50,132,48,83,84,2
73.5252966880798,33,28,54,143,54,87,83,2
73.5478858947754,32,27,55,153,55,90,77,2
73.5651245117188,34,28,55,157,50,70,65,2
73.5851426124573,32,27,50,135,50,61,58,2
73.6079907417297,33,26,45,122,53,86,86,2
73.6253080368042,32,23,43,119,48,87,92,2
73.645357131958,31,26,59,131,45,78,85,2
73.6676752567291,29,25,59,132,48,78,85,2
73.6843450069428,31,24,58,144,44,79,86,2
73.7056732177734,27,24,58,152,44,92,92,2
73.7285594940186,28,24,55,146,43,92,87,2
73.7506258487701,30,21,41,132,41,92,87,2
73.7664701938629,38,22,42,126,39,93,88,2
73.7880971431732,36,22,41,127,45,102,93,2
73.8128461837769,36,22,39,116,41,86,66,2
73.8249826431274,36,26,48,126,42,82,62,2
73.8487932682037,33,26,43,133,47,81,63,2
73.8701133728027,25,25,45,129,43,80,61,2
73.8869678974152,25,24,44,120,41,68,61,2
73.9076321125031,34,24,47,118,46,83,74,2
73.9306240081787,36,23,43,120,55,86,75,2
73.9451336860657,38,23,47,121,51,87,78,2
73.9679074287415,39,24,44,123,53,91,84,2
73.9903304576874,40,26,45,123,58,90,78,2
74.0054049491882,34,26,44,124,55,56,58,2
74.0276999473572,31,25,41,118,46,56,62,2
74.0504131317139,33,26,37,111,46,70,67,2
74.0652666091919,29,28,38,113,46,65,65,2
74.0892632007599,31,28,44,118,38,66,65,2
74.1104416847229,30,27,45,132,45,66,64,2
74.1254925727844,33,26,45,140,51,78,70,2
74.1477384567261,32,26,46,131,51,74,71,2
74.1707057952881,34,27,56,150,52,74,64,2
74.1852035522461,34,26,49,149,51,74,63,2
74.2077658176422,34,26,46,127,44,75,64,2
74.2303245067596,41,29,48,121,49,75,95,2
74.2475669384003,44,27,49,132,51,71,95,2
74.26819896698,43,24,38,107,52,71,96,2
74.2906620502472,42,26,38,99,58,72,98,2
74.3053252696991,41,25,44,100,56,72,101,2
74.3277690410614,35,22,44,133,46,75,76,2
74.3501701354981,34,22,50,145,46,72,67,2
74.3652362823486,36,24,51,146,45,77,75,2
74.387847661972,36,24,54,149,41,83,88,2
74.4102916717529,37,23,57,182,45,103,98,2
74.4252831935883,35,24,56,161,48,92,90,2
74.4477441310883,32,29,53,144,46,95,93,2
74.470771074295,36,27,55,143,45,93,98,2
74.4852724075317,37,26,55,150,40,104,98,2
74.5077095031738,38,28,50,116,35,87,88,2
74.5299427509308,38,29,53,112,33,82,85,2
74.545328617096,39,27,48,111,30,78,81,2
74.5680046081543,41,28,49,136,31,74,69,2
74.5904984474182,39,27,47,125,36,67,62,2
74.6127982139587,39,30,56,140,49,69,63,2
74.6279582977295,41,31,55,137,50,73,64,2
74.6509635448456,40,28,56,144,51,79,68,2
74.6659216880798,34,27,55,138,50,83,68,2
74.6953845024109,33,29,60,148,48,85,69,2
74.7107894420624,35,34,62,140,46,85,66,2
74.7328879833222,37,32,59,141,44,81,73,2
74.7480263710022,38,32,59,153,43,75,75,2
74.7699475288391,36,33,56,146,45,95,85,2
74.7929639816284,36,34,59,138,46,87,80,2
74.8082246780396,31,24,51,125,34,88,93,2
74.8303420543671,29,25,51,123,35,91,90,2
74.8530406951904,25,28,58,128,33,92,90,2
74.8680377006531,26,28,60,115,32,98,98,2
74.8906462192535,27,26,52,112,31,96,96,2
74.9128389358521,35,33,52,121,31,93,97,2
74.9277811050415,38,34,54,144,37,91,98,2
74.9498326778412,38,32,47,120,39,92,100,2
74.9730689525604,39,32,47,128,39,61,81,2
74.9879767894745,40,32,47,137,40,77,92,2
75.0107882022858,36,25,43,136,39,76,82,2
75.0329699516296,33,25,45,123,35,74,76,2
75.0479264259338,33,25,44,127,38,72,71,2
75.070898771286,37,26,47,131,35,77,78,2
75.0928752422333,35,27,44,120,38,85,85,2
75.1078279018402,35,27,47,127,44,87,83,2
75.1302933692932,37,27,45,112,45,88,85,2
75.1531744003296,37,28,46,131,41,87,86,2
75.1677751541138,38,26,47,128,46,88,88,2
75.1913371086121,42,25,46,131,46,74,76,2
75.2129008769989,41,26,46,117,42,76,80,2
75.2277920246124,40,25,42,132,40,76,82,2
75.250412940979,40,25,43,121,44,78,85,2
75.2723166942596,38,24,39,123,44,98,94,2
75.2880022525787,33,23,42,119,42,89,86,2
75.3106276988983,34,21,45,136,46,89,82,2
75.3324310779572,36,19,45,127,47,90,79,2
75.3473517894745,36,20,46,131,52,92,80,2
75.370450258255,34,21,44,123,57,111,88,2
75.3931164741516,37,22,47,125,57,113,87,2
75.4077622890472,37,25,42,125,60,112,87,2
75.4303634166718,35,27,43,128,62,113,90,2
75.4528079032898,34,26,42,114,57,130,100,2
75.4677226543427,34,28,46,132,52,100,79,2
75.4902925491333,33,26,44,132,51,98,85,2
75.5146467685699,33,25,52,135,50,104,95,2
75.5277218818665,38,28,54,136,49,120,103,2
75.5502722263336,36,27,53,139,47,101,88,2
75.5728895664215,35,25,51,122,45,96,86,2
75.5883815288544,37,25,48,123,46,92,81,2
75.6105215549469,37,27,51,119,36,83,68,2
75.632800579071,33,26,51,120,37,66,61,2
75.6556079387665,33,26,49,107,38,88,76,2
75.6698594093323,34,26,48,100,41,87,77,2
75.6929268836975,32,25,50,103,44,94,84,2
75.7153632640839,31,23,37,77,46,96,85,2
75.7303032875061,31,23,35,68,49,110,89,2
75.7550110816956,35,23,36,82,48,92,77,2
75.775505065918,35,24,38,99,45,93,81,2
75.7903649806976,34,30,41,104,42,89,80,2
75.8128614425659,32,31,43,112,45,86,77,2
75.8353540897369,30,29,43,115,46,57,62,2
75.8579246997833,27,30,47,136,45,66,73,2
75.872939825058,34,32,53,139,50,77,75,2
75.895343542099,33,28,49,133,50,75,71,2
75.9113826751709,36,27,49,130,47,75,71,2
75.9326951503754,36,29,52,144,43,73,70,2
75.9557297229767,35,29,54,137,50,107,92,2
75.9702508449554,26,26,44,127,43,104,88,2
75.9929449558258,29,27,47,134,44,105,88,2
76.0155913829803,28,26,48,137,45,107,89,2
76.0303733348846,28,25,43,121,43,107,90,2
76.0532531738281,34,23,37,102,38,81,66,2
76.0752544403076,37,25,49,118,41,95,73,2
76.0906870365143,36,22,57,130,42,94,73,2
76.1128604412079,38,22,58,131,44,92,72,2
76.1353611946106,39,22,60,138,45,100,78,2
76.1506505012512,36,25,63,146,52,87,66,2
76.172999382019,36,24,57,139,55,93,78,2
76.1953701972961,36,26,52,131,58,94,77,2
76.210324048996,31,27,51,131,55,94,77,2
76.2332117557526,30,28,50,136,56,87,75,2
76.2557513713837,34,27,64,148,52,87,79,2
76.2704606056213,34,29,63,152,49,79,72,2
76.2941091060638,36,28,59,142,41,82,72,2
76.32399725914,35,28,62,138,52,84,73,2
76.3304150104523,36,25,66,136,50,90,77,2
76.3531243801117,32,24,53,119,51,89,74,2
76.3760464191437,32,32,58,116,60,87,75,2
76.3902976512909,32,31,59,115,64,87,75,2
76.4133687019348,34,33,61,120,57,84,75,2
76.4353458881378,33,33,54,116,58,77,68,2
76.4503545761108,30,34,55,118,58,80,72,2
76.4728374481201,31,27,48,106,50,103,96,2
76.4956135749817,30,27,48,116,47,105,98,2
76.510509967804,28,25,40,120,50,107,99,2
76.5338246822357,28,27,49,121,48,111,103,2
76.5553855895996,31,27,48,113,42,109,106,2
76.5778884887695,28,28,57,135,43,66,71,2
76.5927710533142,28,29,59,134,42,83,80,2
76.6149277687073,31,30,59,125,39,83,80,2
76.6380612850189,34,31,53,117,41,77,77,2
76.6533806324005,33,33,54,121,43,76,74,2
76.6753625869751,34,32,49,133,46,77,73,2
76.6973507404327,38,30,43,130,48,79,75,2
76.7155830860138,36,31,45,135,46,91,84,2
76.7353200912476,37,29,52,139,48,91,85,2
76.757994890213,36,29,52,150,51,94,88,2
76.7730977535248,37,28,50,119,50,92,84,2
76.7953424453735,33,29,49,110,48,76,77,2
76.8178927898407,34,28,48,101,52,91,93,2
76.8331880569458,33,28,44,108,49,96,95,2
76.8557167053223,33,24,39,88,45,94,90,2
76.8779497146606,32,23,36,101,45,95,94,2
76.8929553031921,31,28,39,104,50,92,86,2
76.9154324531555,31,28,39,117,49,87,74,2
76.9382190704346,30,27,34,127,48,85,74,2
76.9529130458832,30,28,35,123,48,86,75,2
76.9754314422607,32,32,38,114,50,87,79,2
76.9979519844055,40,30,36,116,47,133,117,2
77.0128064155579,38,28,40,116,50,123,109,2
77.0356130599976,37,30,50,126,56,121,106,2
77.0580408573151,37,31,54,142,64,120,107,2
77.0730168819428,36,29,53,146,61,122,109,2
77.0956394672394,33,28,56,153,65,105,96,2
77.1181540489197,36,28,58,151,63,102,96,2
